# Wavelength (nm)   F_lamA (normalized erg/cm2/s/A)9.100 0.000046
9.400 0.000081
9.600 0.000116
9.800 0.000163
10.000 0.000225
10.200 0.000306
10.400 0.000412
10.600 0.000548
10.800 0.000720
11.000 0.000936
11.400 0.001536
11.800 0.002430
12.100 0.003357
12.500 0.005030
12.700 0.006097
12.800 0.006696
13.100 0.008791
13.200 0.009596
13.400 0.011391
13.700 0.014585
14.000 0.018472
14.300 0.023149
14.700 0.030810
15.100 0.040363
15.500 0.052116
15.900 0.066360
16.200 0.078912
16.600 0.098404
17.000 0.121330
17.300 0.141016
17.700 0.170883
18.000 0.196179
18.200 0.214486
18.600 0.254897
19.100 0.312455
19.400 0.351391
19.800 0.407981
20.200 0.470859
20.500 0.521886
21.000 0.615236
21.600 0.740992
22.000 0.833132
22.300 0.906892
22.700 1.011125
23.000 24.981862
23.400 27.980653
24.000 35.888755
24.600 48.319226
25.200 60.725514
25.700 48.609432
26.000 67.400242
26.400 84.498186
26.900 86.964933
27.400 88.754534
27.900 83.361548
28.400 91.245466
29.000 91.124547
29.600 82.732769
30.100 54.848851
30.800 67.230955
31.800 85.465538
32.800 85.755744
33.800 83.288996
34.800 81.160822
35.700 83.627570
36.600 87.061669
37.500 85.392987
38.500 79.129383
39.500 83.047158
40.500 84.256348
41.400 83.168077
42.200 80.604595
43.000 78.718259
44.100 79.879081
45.100 78.766626
46.000 75.985490
47.000 74.534462
48.000 74.292624
49.000 71.221282
50.000 71.777509
50.600 74.461911
51.200 88.391778
52.000 86.191052
53.000 83.941959
54.000 78.524788
55.000 76.759371
56.000 80.652963
57.000 79.709794
58.000 77.122128
59.000 76.614268
60.000 73.784764
61.000 71.245466
62.000 72.962515
63.000 70.955260
64.000 70.544135
65.000 68.633615
65.800 66.529625
66.500 66.989117
67.500 66.336155
68.500 63.409915
69.500 63.796856
70.500 60.677146
71.600 61.571947
72.600 60.652963
73.500 59.758162
74.500 58.258767
75.500 57.001209
76.500 55.187424
77.500 54.873035
78.500 53.639661
79.500 52.865780
80.500 52.140266
81.500 51.366385
82.500 50.592503
83.500 47.980653
84.500 48.706167
85.500 47.666264
86.500 47.158404
87.500 46.384522
88.500 45.538089
89.500 44.691657
90.500 43.579202
91.500 44.280532
92.500 66.626360
93.500 84.594921
94.500 105.683192
95.500 111.245466
96.500 122.587666
97.500 88.899637
98.500 117.122128
99.500 109.093108
100.500 112.793229
101.500 109.480048
102.500 82.756953
103.500 103.240629
104.500 106.142684
105.500 103.651753
106.500 98.766626
107.500 97.775091
108.500 91.148730
109.500 94.316808
110.500 91.197098
111.500 89.165659
112.500 85.320435
113.500 85.586457
114.500 83.119710
115.500 81.112455
116.500 79.322854
117.500 71.898428
118.500 75.163241
119.500 72.889964
120.500 69.649335
121.500 54.220073
122.500 66.964933
123.500 67.110036
124.500 65.828295
125.500 65.030230
126.500 63.700121
127.500 62.660218
128.500 61.426844
129.500 59.347037
130.500 58.234583
131.500 57.629988
132.500 56.106409
133.500 54.752116
134.500 54.050786
135.500 52.865780
136.500 51.487304
137.500 50.278114
138.500 49.480048
139.500 46.045949
140.500 44.087062
141.500 46.577993
142.500 45.296252
143.500 44.764208
144.200 44.062878
144.700 43.627570
145.500 42.829504
146.500 42.007255
147.500 41.233374
148.500 40.580411
149.500 39.709794
150.500 38.911729
151.200 38.331318
151.700 37.944377
152.500 37.339782
153.500 36.009674
154.500 34.220073
155.500 33.784764
156.500 34.026602
157.500 33.712213
158.500 33.228537
159.500 32.648126
160.500 31.608222
161.500 31.003628
162.500 30.471584
163.500 29.770254
164.500 28.512696
165.500 29.165659
166.500 28.730351
167.200 28.053204
167.700 28.319226
168.500 27.883918
169.500 27.351874
170.500 26.771463
171.500 26.045949
172.500 25.683192
173.500 25.538089
174.500 25.030230
175.500 24.594921
176.500 24.137848
177.500 23.796856
178.500 23.441354
179.500 23.047158
180.500 22.711004
181.500 22.263603
182.500 21.910520
183.500 21.569528
184.500 21.056832
185.500 20.665054
186.500 20.389359
187.500 20.135429
188.500 19.654172
189.500 19.272068
190.500 19.131802
191.500 18.725514
192.500 18.328900
193.500 18.200726
194.500 17.992745
195.500 17.538089
196.700 17.361548
197.600 17.187424
198.400 16.889964
199.500 16.532044
200.500 16.370012
201.500 16.147521
202.500 15.939541
203.500 15.634825
204.500 15.395405
205.500 12.986699
206.500 13.557437
207.400 14.798065
207.800 14.742443
208.500 14.631197
209.500 14.413543
210.500 14.239420
211.500 14.108827
212.500 13.910520
213.500 13.685611
214.500 13.460701
215.500 13.376058
216.500 13.051995
217.500 12.977025
218.500 12.684401
219.500 12.631197
220.500 12.437727
221.500 12.130593
222.500 12.062878
223.500 11.910520
224.500 11.738815
225.500 11.434099
226.500 11.407497
227.500 11.255139
228.500 11.097944
229.500 10.853688
230.500 10.650544
231.500 10.628779
232.500 10.295042
233.500 10.326481
234.500 10.171705
235.500 10.058041
236.500 9.900846
237.500 9.777509
238.500 9.477630
239.500 9.504232
240.500 9.378476
241.500 9.255139
242.500 9.151149
243.500 9.018138
244.500 8.909311
245.500 8.790810
246.500 8.672310
247.500 8.558646
248.500 8.454655
249.500 8.149940
250.500 8.227328
251.300 7.828295
251.800 8.074970
252.500 8.009674
253.500 7.908102
254.500 7.804111
255.500 7.724305
256.500 7.622733
257.500 7.538089
258.500 7.443773
259.500 7.344619
260.500 7.252721
261.500 7.158404
262.500 7.078597
263.500 6.993954
264.500 6.935913
265.500 6.851270
266.500 6.754534
267.500 6.677146
268.500 6.611850
269.500 6.507860
270.500 6.447400
271.500 6.362757
272.500 6.270859
273.500 6.113664
274.500 6.120919
275.500 6.053204
276.500 5.975816
277.500 5.934704
278.500 5.859734
279.500 5.746070
280.500 5.700121
281.500 5.666264
282.500 5.586457
283.500 5.523579
284.500 5.470375
285.500 5.405079
286.500 5.351874
287.500 5.288996
288.500 5.230955
289.500 5.170496
291.000 5.093108
293.000 4.977025
295.000 4.853688
297.000 4.761790
299.000 4.657799
301.000 4.544135
303.000 4.432890
305.000 4.324063
307.000 4.220073
309.000 4.118501
311.000 4.019347
313.000 3.922612
315.000 3.830713
317.000 3.743652
319.000 3.637243
321.000 3.542926
323.000 3.487304
325.000 3.409915
327.000 3.334946
329.000 3.262394
331.000 3.194680
332.200 3.160822
332.300 3.172914
332.400 3.158404
332.500 3.146312
332.600 3.129383
332.700 3.112455
332.800 3.100363
332.900 3.097944
333.000 3.095526
333.100 3.095526
333.200 3.088271
333.300 3.066505
333.400 3.051995
333.500 3.037485
333.600 3.020556
333.700 3.015719
333.800 3.013301
333.900 3.003628
334.000 2.981862
334.100 2.986699
334.200 3.003628
334.300 3.061669
334.400 3.100363
334.500 3.126965
334.600 3.146312
334.700 3.151149
334.800 3.110036
334.900 3.047158
335.000 2.935913
335.100 2.918984
335.200 2.943168
335.300 2.950423
335.400 2.945586
335.500 2.933495
335.600 2.935913
335.700 2.945586
335.800 2.955260
335.900 2.957678
336.000 2.955260
336.100 2.948005
336.200 2.955260
336.300 2.952842
336.400 2.950423
336.500 2.923821
336.600 2.897219
336.700 2.875453
336.800 2.868198
336.900 2.875453
337.000 2.894800
337.100 2.892382
337.200 2.863362
337.300 2.860943
337.400 2.875453
337.500 2.899637
337.600 2.911729
337.700 2.889964
337.800 2.882709
337.900 2.887545
338.000 2.914148
338.100 2.940750
338.200 2.943168
338.300 2.933495
338.400 2.921403
338.500 2.940750
338.600 2.967352
338.700 2.984281
338.800 2.979444
338.900 2.950423
339.000 2.943168
339.100 2.940750
339.200 2.960097
339.300 2.974607
339.400 3.008464
339.500 3.008464
339.600 2.984281
339.700 2.952842
339.800 2.926239
339.900 2.860943
340.000 2.822249
340.100 2.822249
340.200 2.807739
340.300 2.798065
340.400 2.810157
340.500 2.819831
340.600 2.817412
340.700 2.819831
340.800 2.827086
340.900 2.834341
341.000 2.836759
341.100 2.805320
341.200 2.805320
341.300 2.829504
341.400 2.853688
341.500 2.868198
341.600 2.863362
341.700 2.863362
341.800 2.865780
341.900 2.873035
342.000 2.868198
342.100 2.868198
342.200 2.865780
342.300 2.873035
342.400 2.873035
342.500 2.863362
342.600 2.863362
342.700 2.865780
342.800 2.885127
342.900 2.892382
343.000 2.870617
343.100 2.860943
343.200 2.848851
343.300 2.846433
343.400 2.848851
343.500 2.868198
343.600 2.875453
343.700 2.868198
343.800 2.848851
343.900 2.827086
344.000 2.785973
344.100 2.771463
344.200 2.773881
344.300 2.795647
344.400 2.812576
344.500 2.788392
344.600 2.776300
344.700 2.771463
344.800 2.790810
344.900 2.814994
345.000 2.759371
345.100 2.715840
345.200 2.701330
345.300 2.701330
345.400 2.713422
345.500 2.713422
345.600 2.713422
345.700 2.708585
345.800 2.701330
345.900 2.691657
346.000 2.684401
346.100 2.684401
346.200 2.703748
346.300 2.785973
346.400 2.747279
346.500 2.737606
346.600 2.744861
346.700 2.740024
346.800 2.732769
346.900 2.737606
347.000 2.742443
347.100 2.703748
347.200 2.696493
347.300 2.725514
347.400 2.720677
347.500 2.703748
347.600 2.679565
347.700 2.631197
347.800 2.585248
347.900 2.577993
348.000 2.604595
348.100 2.643289
348.200 2.631197
348.300 2.599758
348.400 2.609432
348.500 2.665054
348.600 2.679565
348.700 2.691657
348.800 2.723096
348.900 2.730351
349.000 2.711004
349.100 2.706167
349.200 2.727932
349.300 2.723096
349.400 2.715840
349.500 2.698912
349.600 2.665054
349.700 2.667473
349.800 2.686820
349.900 2.701330
350.000 2.672310
350.100 2.619105
350.200 2.621524
350.300 2.633615
350.400 2.616687
350.500 2.585248
350.600 2.575574
350.700 2.587666
350.800 2.599758
350.900 2.599758
351.000 2.597340
351.100 2.597340
351.200 2.590085
351.300 2.577993
351.400 2.585248
351.500 2.590085
351.600 2.607013
351.700 2.592503
351.800 2.592503
351.900 2.602177
352.000 2.604595
352.100 2.599758
352.200 2.592503
352.300 2.590085
352.400 2.611850
352.500 2.577993
352.600 2.575574
352.700 2.577993
352.800 2.590085
352.900 2.607013
353.000 2.611850
353.100 2.621524
353.200 2.633615
353.300 2.616687
353.400 2.587666
353.500 2.580411
353.600 2.585248
353.700 2.563482
353.800 2.561064
353.900 2.565901
354.000 2.587666
354.100 2.602177
354.200 2.597340
354.300 2.585248
354.400 2.590085
354.500 2.592503
354.600 2.577993
354.700 2.585248
354.800 2.599758
354.900 2.602177
355.000 2.582830
355.100 2.568319
355.200 2.575574
355.300 2.587666
355.400 2.590085
355.500 2.577993
355.600 2.561064
355.700 2.565901
355.800 2.575574
355.900 2.573156
356.000 2.565901
356.100 2.575574
356.200 2.587666
356.300 2.577993
356.400 2.565901
356.500 2.570738
356.600 2.577993
356.700 2.553809
356.800 2.556227
356.900 2.546554
357.000 2.512696
357.100 2.454655
357.200 2.444982
357.300 2.449819
357.400 2.442563
357.500 2.442563
357.600 2.452237
357.700 2.452237
357.800 2.449819
357.900 2.440145
358.000 2.447400
358.100 2.457074
358.200 2.454655
358.300 2.452237
358.400 2.444982
358.500 2.437727
358.600 2.428053
358.700 2.420798
358.800 2.411608
358.900 2.408948
359.000 2.428053
359.100 2.440145
359.200 2.432890
359.300 2.432890
359.400 2.435308
359.500 2.428053
359.600 2.420798
359.700 2.423216
359.800 2.425635
359.900 2.432890
360.000 2.457074
360.100 2.452237
360.200 2.454655
360.300 2.440145
360.400 2.428053
360.500 2.428053
360.600 2.430472
360.700 2.430472
360.800 2.440145
360.900 2.449819
361.000 2.442563
361.100 2.412817
361.200 2.411608
361.300 2.404353
361.400 2.390085
361.500 2.393229
361.600 2.414994
361.700 2.430472
361.800 2.440145
361.900 2.442563
362.000 2.418380
362.100 2.414752
362.200 2.437727
362.300 2.440145
362.400 2.428053
362.500 2.425635
362.600 2.440145
362.700 2.447400
362.800 2.435308
362.900 2.423216
363.000 2.430472
363.100 2.437727
363.200 2.425635
363.300 2.413301
363.400 2.430472
363.500 2.428053
363.600 2.380895
363.700 2.359129
363.800 2.362999
363.900 2.363724
364.000 2.370738
364.100 2.384522
364.200 2.388150
364.300 2.365659
364.400 2.338089
364.500 2.337122
364.600 2.344377
364.700 2.349456
364.800 2.356227
364.900 2.362757
365.000 2.361306
365.100 2.348730
365.200 2.344619
365.300 2.341959
365.400 2.336397
365.500 2.341959
365.600 2.344377
365.700 2.338089
365.800 2.335429
365.900 2.330834
366.000 2.319952
366.100 2.312213
366.200 2.308585
366.300 2.319226
366.400 2.326481
366.500 2.319468
366.600 2.312938
366.700 2.301814
366.800 2.297219
366.900 2.303265
367.000 2.306409
367.100 2.303023
367.200 2.298428
367.300 2.295042
367.400 2.293108
367.500 2.289722
367.600 2.297219
367.700 2.280290
367.800 2.271342
367.900 2.272310
368.000 2.279081
368.100 2.292140
368.200 2.293833
368.300 2.285369
368.400 2.274486
368.500 2.266505
368.600 2.257074
368.700 2.261185
368.800 2.282709
368.900 2.310520
369.000 2.306409
369.100 2.275937
369.200 2.283918
369.300 2.305200
369.400 2.307376
369.500 2.297461
369.600 2.263120
369.700 2.242322
369.800 2.246675
369.900 2.295768
370.000 2.351632
370.100 2.343652
370.200 2.282709
370.300 2.191536
370.400 2.151632
370.500 2.149940
370.600 2.212817
370.700 2.277872
370.800 2.320677
370.900 2.295526
371.000 2.226360
371.100 2.156711
371.200 2.116082
371.300 2.140992
371.400 2.214752
371.500 2.325514
371.600 2.372672
371.700 2.391294
371.800 2.381137
371.900 2.300121
372.000 2.162031
372.100 2.091898
372.200 2.058041
372.300 2.103748
372.400 2.182588
372.500 2.277872
372.600 2.319710
372.700 2.368319
372.800 2.392019
372.900 2.400242
373.000 2.386215
373.100 2.324305
373.200 2.206288
373.300 2.096735
373.400 2.001935
373.500 1.991294
373.600 2.049819
373.700 2.175333
373.800 2.271342
373.900 2.383555
374.000 2.437727
374.100 2.461911
374.200 2.454655
374.300 2.428053
374.400 2.409190
374.500 2.381378
374.600 2.312213
374.700 2.207013
374.800 2.092382
374.900 1.949698
375.000 1.919710
375.100 1.964933
375.200 2.071100
375.300 2.163482
375.400 2.266264
375.500 2.324547
375.600 2.372430
375.700 2.368077
375.800 2.346796
375.900 2.325998
376.000 2.310036
376.100 2.299879
376.200 2.351632
376.300 2.380169
376.400 2.365901
376.500 2.329141
376.600 2.262636
376.700 2.189117
376.800 2.079565
376.900 1.955018
377.000 1.856832
377.100 1.833615
377.200 1.919952
377.300 2.059250
377.400 2.164450
377.500 2.248368
377.600 2.303023
377.700 2.338573
377.800 2.374365
377.900 2.388150
378.000 2.404111
378.100 2.414510
378.200 2.420798
378.300 2.407255
378.400 2.399516
378.500 2.414027
378.600 2.412817
378.700 2.393954
378.800 2.378718
378.900 2.366626
379.000 2.347763
379.100 2.326239
379.200 2.300846
379.300 2.258041
379.400 2.181378
379.500 2.059492
379.600 1.925030
379.700 1.793229
379.800 1.742926
379.900 1.802177
380.000 1.964208
380.100 2.094559
380.200 2.200726
380.300 2.258525
380.400 2.299395
380.500 2.334220
380.600 2.325272
380.700 2.336638
380.800 2.359371
380.900 2.382346
381.000 2.405079
381.100 2.412334
381.200 2.389601
381.300 2.364208
381.400 2.347037
381.500 2.342926
381.600 2.339782
381.700 2.339299
381.800 2.316566
381.900 2.284401
382.000 2.262152
382.100 2.261185
382.200 2.309311
382.300 2.332044
382.400 2.320435
382.500 2.297944
382.600 2.271342
382.700 2.274728
382.800 2.269891
382.900 2.231439
383.000 2.183555
383.100 2.114631
383.200 2.020798
383.300 1.891657
383.400 1.728416
383.500 1.653446
383.600 1.660943
383.700 1.775816
383.800 1.909553
383.900 2.039903
384.000 2.114389
384.100 2.182588
384.200 2.226119
384.300 2.275695
384.400 2.317291
384.500 2.347037
384.600 2.341717
384.700 2.339541
384.800 2.333253
384.900 2.336397
385.000 2.332044
385.100 2.347521
385.200 2.359371
385.300 2.355018
385.400 2.336155
385.500 2.315840
385.600 2.297944
385.700 2.294559
385.800 2.308827
385.900 2.335671
386.000 2.347279
386.100 2.353809
386.200 2.332769
386.300 2.291657
386.400 2.285611
386.500 2.282225
386.600 2.281499
386.700 2.295526
386.800 2.310036
386.900 2.310036
387.000 2.295042
387.100 2.270375
387.200 2.249335
387.300 2.249577
387.400 2.266022
387.500 2.283434
387.600 2.278114
387.700 2.257074
387.800 2.245949
387.900 2.246917
388.000 2.256348
388.100 2.236759
388.200 2.198307
388.300 2.159855
388.400 2.118017
388.500 2.036276
388.600 1.917775
388.700 1.747763
388.800 1.608222
388.900 1.550423
389.000 1.634341
389.100 1.796131
389.200 1.963482
389.300 2.064329
389.400 2.133495
389.500 2.171705
389.600 2.200242
389.700 2.226119
389.800 2.236518
389.900 2.236759
390.000 2.242080
390.100 2.260943
390.200 2.279807
390.300 2.290447
390.400 2.293591
390.500 2.288996
390.600 2.274970
390.700 2.285611
390.800 2.317533
390.900 2.333736
391.000 2.324063
391.100 2.323096
391.200 2.316324
391.300 2.290206
391.400 2.280290
391.500 2.293349
391.600 2.303265
391.700 2.303265
391.800 2.294317
391.900 2.269407
392.000 2.259250
392.100 2.255623
392.200 2.242563
392.300 2.219105
392.400 2.215961
392.500 2.227811
392.600 2.223942
392.700 2.225635
392.800 2.221040
392.900 2.214510
393.000 2.195163
393.100 2.130593
393.200 1.963724
393.300 1.722370
393.400 1.743652
393.500 1.953567
393.600 2.105683
393.700 2.173398
393.800 2.206046
393.900 2.224667
394.000 2.247400
394.100 2.260701
394.200 2.259492
394.300 2.241596
394.400 2.233132
394.500 2.211366
394.600 2.204837
394.700 2.211608
394.800 2.214268
394.900 2.210399
395.000 2.205320
395.100 2.197823
395.200 2.191536
395.300 2.192503
395.400 2.191778
395.500 2.181137
395.600 2.165175
395.700 2.150181
395.800 2.146554
395.900 2.149940
396.000 2.143652
396.100 2.127932
396.200 2.093833
396.300 2.048851
396.400 1.992503
396.500 1.925756
396.600 1.820798
396.700 1.589117
396.800 1.350181
396.900 1.257799
397.000 1.305683
397.100 1.435792
397.200 1.614027
397.300 1.754293
397.400 1.868440
397.500 1.949214
397.600 2.009915
397.700 2.044256
397.800 2.059008
397.900 2.088513
398.000 2.101088
398.100 2.109069
398.200 2.107860
398.300 2.104716
398.400 2.117291
398.500 2.131318
398.600 2.103023
398.700 2.054897
398.800 2.115840
398.900 2.136880
399.000 2.151632
399.100 2.162999
399.200 2.167110
399.300 2.164692
399.400 2.150423
399.500 2.145586
399.600 2.133495
399.700 2.130593
399.800 2.135187
399.900 2.144861
400.000 2.132285
400.100 2.120919
400.200 2.119468
400.300 2.116082
400.400 2.116808
400.500 2.115599
400.600 2.115840
400.700 2.116082
400.800 2.118501
400.900 2.110520
401.000 2.104958
401.100 2.115115
401.200 2.118984
401.300 2.124547
401.400 2.131560
401.500 2.135671
401.600 2.139541
401.700 2.147521
401.800 2.158162
401.900 2.165417
402.000 2.161790
402.100 2.146554
402.200 2.133978
402.300 2.098428
402.400 2.042322
402.500 1.986941
402.600 1.977751
402.700 2.012817
402.800 2.068198
402.900 2.098670
403.000 2.126481
403.100 2.129383
403.200 2.130834
403.300 2.129383
403.400 2.130593
403.500 2.135671
403.600 2.138573
403.700 2.140750
403.800 2.143652
403.900 2.138573
404.000 2.140750
404.100 2.147279
404.200 2.140992
404.300 2.131560
404.400 2.121886
404.500 2.109069
404.600 2.103507
404.700 2.119952
404.800 2.134704
404.900 2.137848
405.000 2.131802
405.100 2.130109
405.200 2.134946
405.300 2.124788
405.400 2.121886
405.500 2.130593
405.600 2.133253
405.700 2.136638
405.800 2.142926
405.900 2.145828
406.000 2.138331
406.100 2.114631
406.200 2.102056
406.300 2.101330
406.400 2.060701
406.500 1.971705
406.600 2.001451
406.700 2.041596
406.800 2.044015
406.900 2.035067
407.000 2.021282
407.100 2.011850
407.200 2.017170
407.300 2.013785
407.400 2.021282
407.500 2.017412
407.600 1.998307
407.700 1.984522
407.800 1.988150
407.900 2.012817
408.000 2.032648
408.100 2.038210
408.200 2.034341
408.300 2.029504
408.400 2.011125
408.500 2.003869
408.600 1.996856
408.700 2.007255
408.800 2.016929
408.900 2.015961
409.000 2.000484
409.100 1.988875
409.200 1.984522
409.300 1.963241
409.400 1.935913
409.500 1.893833
409.600 1.848368
409.700 1.798549
409.800 1.706651
409.900 1.595889
410.000 1.461427
410.100 1.342443
410.200 1.318017
410.300 1.412817
410.400 1.569770
410.500 1.720919
410.600 1.802418
410.700 1.847642
410.800 1.883676
410.900 1.897944
411.000 1.912696
411.100 1.928900
411.200 1.945586
411.300 1.960097
411.400 1.979444
411.500 1.998791
411.600 2.008948
411.700 1.997098
411.800 1.971221
411.900 1.954776
412.000 1.950423
412.100 1.955018
412.200 1.955260
412.300 1.963241
412.400 1.976058
412.500 1.988875
412.600 1.986699
412.700 1.965417
412.800 1.941233
412.900 1.936638
413.000 1.943894
413.100 1.951391
413.200 1.955018
413.300 1.962031
413.400 1.978718
413.500 1.991536
413.600 1.993712
413.700 1.994196
413.800 2.000726
413.900 2.002902
414.000 2.002418
414.100 1.998307
