# Wavelength (nm)   F_lamA (normalized erg/cm2/s/A)9.100 0.000024
9.400 0.000036
9.600 0.000046
9.800 0.000059
10.000 0.000075
10.200 0.000094
10.400 0.000116
10.600 0.000142
10.800 0.000172
11.000 0.000207
11.400 0.000294
11.800 0.000405
12.100 0.000506
12.500 0.000669
12.700 0.000762
12.800 0.000812
13.100 0.000976
13.200 0.001035
13.400 0.001161
13.700 0.001368
14.000 0.001598
14.300 0.001851
14.700 0.002227
15.100 0.002644
15.500 0.003106
15.900 0.003610
16.200 0.004013
16.600 0.004589
17.000 0.005202
17.300 0.005687
17.700 0.006365
18.000 0.006894
18.200 0.007256
18.600 0.008001
19.100 0.008972
19.400 0.009571
19.800 0.010388
20.200 0.011219
20.500 0.011855
21.000 0.012925
21.600 0.014227
22.000 0.015100
22.300 0.015754
22.700 0.016627
23.000 0.149048
23.400 0.147795
24.000 0.146727
24.600 0.146541
25.200 0.145729
25.700 0.138974
26.000 0.141945
26.400 0.141922
26.900 0.139554
27.400 0.137326
27.900 0.133914
28.400 0.132289
29.000 0.129039
29.600 0.124489
30.100 0.116365
30.800 0.114624
31.800 0.113904
32.800 0.109401
33.800 0.104480
34.800 0.099838
35.700 0.096402
36.600 0.093152
37.500 0.089461
38.500 0.084749
39.500 0.081987
40.500 0.078900
41.400 0.075929
42.200 0.073120
43.000 0.070636
44.100 0.067827
45.100 0.065065
46.000 0.062442
47.000 0.059912
48.000 0.057683
49.000 0.055153
50.000 0.053250
50.600 0.053134
51.200 0.054851
52.000 0.053110
53.000 0.051137
54.000 0.048584
55.000 0.046866
56.000 0.046007
57.000 0.044475
58.000 0.042688
59.000 0.041435
60.000 0.039810
61.000 0.038278
62.000 0.037465
63.000 0.036165
64.000 0.035121
65.000 0.033914
65.800 0.032869
66.500 0.032358
67.500 0.031453
68.500 0.030200
69.500 0.029573
70.500 0.028366
71.600 0.027786
72.600 0.026996
73.500 0.026323
74.500 0.025511
75.500 0.024768
76.500 0.023955
77.500 0.023422
78.500 0.022751
79.500 0.022161
80.500 0.021618
81.500 0.021072
82.500 0.020559
83.500 0.019735
84.500 0.019513
85.500 0.018995
86.500 0.018591
87.500 0.018145
88.500 0.017704
89.500 0.017275
90.500 0.016797
91.500 0.019782
92.500 0.028227
93.500 0.036374
94.500 0.048770
95.500 0.052948
96.500 0.059192
97.500 0.039415
98.500 0.059215
99.500 0.057892
100.500 0.059424
101.500 0.055200
102.500 0.036955
103.500 0.050998
104.500 0.057498
105.500 0.060608
106.500 0.060214
107.500 0.063162
108.500 0.060539
109.500 0.062604
110.500 0.062581
111.500 0.061606
112.500 0.058914
113.500 0.059239
114.500 0.056082
115.500 0.053784
116.500 0.051509
117.500 0.044591
118.500 0.043872
119.500 0.039856
120.500 0.036467
121.500 0.024652
122.500 0.035515
123.500 0.037883
124.500 0.039183
125.500 0.041620
126.500 0.042688
127.500 0.045961
128.500 0.048375
129.500 0.048677
130.500 0.048770
131.500 0.051764
132.500 0.052809
133.500 0.053296
134.500 0.056151
135.500 0.056058
136.500 0.056708
137.500 0.058287
138.500 0.059889
139.500 0.060399
140.500 0.060910
141.500 0.063092
142.500 0.063347
143.500 0.062628
144.200 0.066179
144.700 0.065669
145.500 0.068222
146.500 0.065924
147.500 0.067502
148.500 0.068477
149.500 0.069429
150.500 0.071565
151.200 0.071170
151.700 0.070706
152.500 0.071588
153.500 0.071727
154.500 0.072934
155.500 0.074257
156.500 0.071820
157.500 0.078644
158.500 0.084494
159.500 0.088812
160.500 0.082892
161.500 0.089670
162.500 0.088579
163.500 0.091226
164.500 0.103830
165.500 0.088858
166.500 0.115390
167.200 0.101486
167.700 0.119522
168.500 0.127669
169.500 0.125371
170.500 0.130292
171.500 0.140576
172.500 0.142502
173.500 0.152809
174.500 0.151811
175.500 0.161722
176.500 0.146356
177.500 0.160306
178.500 0.164647
179.500 0.176416
180.500 0.199582
181.500 0.201602
182.500 0.193036
183.500 0.200418
184.500 0.182173
185.500 0.193942
186.500 0.204805
187.500 0.205292
188.500 0.208217
189.500 0.215576
190.500 0.210074
191.500 0.220868
192.500 0.226741
193.500 0.212279
194.500 0.234215
195.500 0.236305
196.700 0.247911
197.600 0.242108
198.400 0.241876
199.500 0.242108
200.500 0.233287
201.500 0.240251
202.500 0.224489
203.500 0.249536
204.500 0.261606
205.500 0.258124
206.500 0.256500
207.400 0.276462
207.800 0.276695
208.500 0.275766
209.500 0.269963
210.500 0.265320
211.500 0.275302
212.500 0.275534
213.500 0.259981
214.500 0.280873
215.500 0.277855
216.500 0.266017
217.500 0.267874
218.500 0.280873
219.500 0.301068
220.500 0.292943
221.500 0.277855
222.500 0.289229
223.500 0.317549
224.500 0.300836
225.500 0.286908
226.500 0.277623
227.500 0.297586
228.500 0.307799
229.500 0.292015
230.500 0.309192
231.500 0.312210
232.500 0.284355
233.500 0.300836
234.500 0.267874
235.500 0.320799
236.500 0.283426
237.500 0.308728
238.500 0.259981
239.500 0.291783
240.500 0.287837
241.500 0.292015
242.500 0.332637
243.500 0.324745
244.500 0.339369
245.500 0.338440
246.500 0.339601
247.500 0.322656
248.500 0.311049
249.500 0.311513
250.500 0.355850
251.300 0.316852
251.800 0.291551
252.500 0.284355
253.500 0.300371
254.500 0.305710
255.500 0.340994
256.500 0.338440
257.500 0.364903
258.500 0.365831
259.500 0.360260
260.500 0.347725
261.500 0.333565
262.500 0.367920
263.500 0.385562
264.500 0.435933
265.500 0.448700
266.500 0.418524
267.500 0.438719
268.500 0.452414
269.500 0.421309
270.500 0.432451
271.500 0.402275
272.500 0.404364
273.500 0.425952
274.500 0.366992
275.500 0.392758
276.500 0.428737
277.500 0.446843
278.500 0.424559
279.500 0.269963
280.500 0.313138
281.500 0.469824
282.500 0.477019
283.500 0.469824
284.500 0.451718
285.500 0.392990
286.500 0.467270
287.500 0.472609
288.500 0.481198
289.500 0.488162
291.000 0.519266
293.000 0.512071
295.000 0.505571
297.000 0.510446
299.000 0.519266
301.000 0.523445
303.000 0.530409
305.000 0.541318
307.000 0.539461
309.000 0.540158
311.000 0.544568
313.000 0.546890
315.000 0.549211
317.000 0.561049
319.000 0.543408
321.000 0.561746
323.000 0.550604
325.000 0.581012
327.000 0.606778
329.000 0.609796
331.000 0.611653
332.200 0.586119
332.300 0.548979
332.400 0.542247
332.500 0.555014
332.600 0.552461
332.700 0.538997
332.800 0.543640
332.900 0.553389
333.000 0.577066
333.100 0.594708
333.200 0.590529
333.300 0.593547
333.400 0.581012
333.500 0.571031
333.600 0.554782
333.700 0.545497
333.800 0.558728
333.900 0.573120
334.000 0.579619
334.100 0.580316
334.200 0.574977
334.300 0.588904
334.400 0.604921
334.500 0.599582
334.600 0.587047
334.700 0.555478
334.800 0.533194
334.900 0.522284
335.000 0.549443
335.100 0.562674
335.200 0.549907
335.300 0.544800
335.400 0.558032
335.500 0.591226
335.600 0.596100
335.700 0.574977
335.800 0.524838
335.900 0.479341
336.000 0.453807
336.100 0.466574
336.200 0.496286
336.300 0.535747
336.400 0.565227
336.500 0.554782
336.600 0.543175
336.700 0.541086
336.800 0.536676
336.900 0.536444
337.000 0.498607
337.100 0.465181
337.200 0.463324
337.300 0.489090
337.400 0.524373
337.500 0.555942
337.600 0.572191
337.700 0.566852
337.800 0.548979
337.900 0.533890
338.000 0.534819
338.100 0.542711
338.200 0.546193
338.300 0.553853
338.400 0.564995
338.500 0.577298
338.600 0.569406
338.700 0.539461
338.800 0.521356
338.900 0.549211
339.000 0.573120
339.100 0.590529
339.200 0.570566
339.300 0.545032
339.400 0.553389
339.500 0.571263
339.600 0.596797
339.700 0.609796
339.800 0.619545
339.900 0.626741
340.000 0.624420
340.100 0.614438
340.200 0.586119
340.300 0.577530
340.400 0.570799
340.500 0.579619
340.600 0.582405
340.700 0.568477
340.800 0.546193
340.900 0.550139
341.000 0.575441
341.100 0.572423
341.200 0.563835
341.300 0.548050
341.400 0.551532
341.500 0.575209
341.600 0.591226
341.700 0.599350
341.800 0.600511
341.900 0.600975
342.000 0.605153
342.100 0.606314
342.200 0.592386
342.300 0.571263
342.400 0.562906
342.500 0.570102
342.600 0.576370
342.700 0.585887
342.800 0.606082
342.900 0.626973
343.000 0.642293
343.100 0.622331
343.200 0.597725
343.300 0.584030
343.400 0.596565
343.500 0.624884
343.600 0.628366
343.700 0.609796
343.800 0.589369
343.900 0.571263
344.000 0.561049
344.100 0.547586
344.200 0.540622
344.300 0.541783
344.400 0.551300
344.500 0.562442
344.600 0.584494
344.700 0.614206
344.800 0.633240
344.900 0.642758
345.000 0.621866
345.100 0.589369
345.200 0.565460
345.300 0.563370
345.400 0.576602
345.500 0.590994
345.600 0.597029
345.700 0.600743
345.800 0.600046
345.900 0.595868
346.000 0.579155
346.100 0.561978
346.200 0.570799
346.300 0.577066
346.400 0.584726
346.500 0.576602
346.600 0.577530
346.700 0.597725
346.800 0.625812
346.900 0.646007
347.000 0.650650
347.100 0.637187
347.200 0.620938
347.300 0.591922
347.400 0.572191
347.500 0.564067
347.600 0.565924
347.700 0.592851
347.800 0.619777
347.900 0.633473
348.000 0.643454
348.100 0.639044
348.200 0.629526
348.300 0.624420
348.400 0.622795
348.500 0.634633
348.600 0.651346
348.700 0.650186
348.800 0.636722
348.900 0.611653
349.000 0.591458
349.100 0.601439
349.200 0.620706
349.300 0.621866
349.400 0.616760
349.500 0.606314
349.600 0.596332
349.700 0.600975
349.800 0.594475
349.900 0.597261
350.000 0.598654
350.100 0.599350
350.200 0.609099
350.300 0.611653
350.400 0.612813
350.500 0.605385
350.600 0.600743
350.700 0.599582
350.800 0.592618
350.900 0.593779
351.000 0.592618
351.100 0.592618
351.200 0.589369
351.300 0.584726
351.400 0.589601
351.500 0.602832
351.600 0.629759
351.700 0.648793
351.800 0.646240
351.900 0.621402
352.000 0.603528
352.100 0.593083
352.200 0.587744
352.300 0.580780
352.400 0.566852
352.500 0.557799
352.600 0.567317
352.700 0.582405
352.800 0.603760
352.900 0.623027
353.000 0.637419
353.100 0.648561
353.200 0.645775
353.300 0.626741
353.400 0.613742
353.500 0.610028
353.600 0.626277
353.700 0.651578
353.800 0.663417
353.900 0.666202
354.000 0.661096
354.100 0.655060
354.200 0.655757
354.300 0.665738
354.400 0.674095
354.500 0.671077
354.600 0.664113
354.700 0.653435
354.800 0.648329
354.900 0.652739
355.000 0.665042
355.100 0.679434
355.200 0.671309
355.300 0.650650
355.400 0.637651
355.500 0.640669
355.600 0.654132
355.700 0.673166
355.800 0.683612
355.900 0.678969
356.000 0.671077
356.100 0.666899
356.200 0.661560
356.300 0.647632
356.400 0.627205
356.500 0.609331
356.600 0.605850
356.700 0.609564
356.800 0.607474
356.900 0.600975
357.000 0.588672
357.100 0.579619
357.200 0.579619
357.300 0.583101
357.400 0.589369
357.500 0.600743
357.600 0.610724
357.700 0.622563
357.800 0.633473
357.900 0.625580
358.000 0.608403
358.100 0.592851
358.200 0.585190
358.300 0.589833
358.400 0.581708
358.500 0.562674
358.600 0.536676
358.700 0.525302
358.800 0.542015
358.900 0.576370
359.000 0.606082
359.100 0.616992
359.200 0.612117
359.300 0.610260
359.400 0.616760
359.500 0.635562
359.600 0.650650
359.700 0.655292
359.800 0.652971
359.900 0.651346
360.000 0.652275
360.100 0.639508
360.200 0.628134
360.300 0.623491
360.400 0.630687
360.500 0.634169
360.600 0.627437
360.700 0.616760
360.800 0.608403
360.900 0.610492
361.000 0.611885
361.100 0.616992
361.200 0.628134
361.300 0.636026
361.400 0.644615
361.500 0.667131
361.600 0.669684
361.700 0.657149
361.800 0.632776
361.900 0.611421
362.000 0.623259
362.100 0.642061
362.200 0.653900
362.300 0.661096
362.400 0.667363
362.500 0.686862
362.600 0.708449
362.700 0.728412
362.800 0.721448
362.900 0.692665
363.000 0.649721
363.100 0.624884
363.200 0.634169
363.300 0.658774
363.400 0.667363
363.500 0.661792
363.600 0.658310
363.700 0.672238
363.800 0.691272
363.900 0.700325
364.000 0.700325
364.100 0.691968
364.200 0.677112
364.300 0.665738
364.400 0.657846
364.500 0.653668
364.600 0.650882
364.700 0.649489
364.800 0.649721
364.900 0.646472
365.000 0.646240
365.100 0.650418
365.200 0.664810
365.300 0.679201
365.400 0.697772
365.500 0.714717
365.600 0.725859
365.700 0.729805
365.800 0.725859
365.900 0.726555
366.000 0.729341
366.100 0.718431
366.200 0.705896
366.300 0.695682
366.400 0.696611
366.500 0.705200
366.600 0.707521
366.700 0.705432
366.800 0.693593
366.900 0.683148
367.000 0.682683
367.100 0.691040
367.200 0.703575
367.300 0.710771
367.400 0.708682
367.500 0.702414
367.600 0.684308
367.700 0.665042
367.800 0.654132
367.900 0.656221
368.000 0.664578
368.100 0.668292
368.200 0.670845
368.300 0.671773
368.400 0.670381
368.500 0.658310
368.600 0.652739
368.700 0.660631
368.800 0.685237
368.900 0.709842
369.000 0.709146
369.100 0.701950
369.200 0.698004
369.300 0.700789
369.400 0.705200
369.500 0.712860
369.600 0.710074
369.700 0.698932
369.800 0.711235
369.900 0.731662
370.000 0.755803
370.100 0.750232
370.200 0.707521
370.300 0.656453
370.400 0.626045
370.500 0.624188
370.600 0.639740
370.700 0.659239
370.800 0.676880
370.900 0.676184
371.000 0.653668
371.100 0.631616
371.200 0.632080
371.300 0.663649
371.400 0.708217
371.500 0.748143
371.600 0.768338
371.700 0.770427
371.800 0.746054
371.900 0.692665
372.000 0.613974
372.100 0.561513
372.200 0.561049
372.300 0.606778
372.400 0.677577
372.500 0.730037
372.600 0.749071
372.700 0.758821
372.800 0.765552
372.900 0.770427
373.000 0.764624
373.100 0.734912
373.200 0.658774
373.300 0.581941
373.400 0.526927
373.500 0.517409
373.600 0.557567
373.700 0.628134
373.800 0.687094
373.900 0.751161
374.000 0.787604
374.100 0.799675
374.200 0.784587
374.300 0.765785
374.400 0.739090
374.500 0.712163
374.600 0.689647
374.700 0.657846
374.800 0.616063
374.900 0.574745
375.000 0.554318
375.100 0.582173
375.200 0.640204
375.300 0.714020
375.400 0.772516
375.500 0.801996
375.600 0.806175
375.700 0.783658
375.800 0.769266
375.900 0.769499
376.000 0.771356
376.100 0.785980
376.200 0.796425
376.300 0.796193
376.400 0.786676
376.500 0.769034
376.600 0.746518
376.700 0.717270
376.800 0.663185
376.900 0.607939
377.000 0.569174
377.100 0.580084
377.200 0.629991
377.300 0.700093
377.400 0.750464
377.500 0.779480
377.600 0.793640
377.700 0.812210
377.800 0.840994
377.900 0.867920
378.000 0.892526
378.100 0.902971
378.200 0.901578
378.300 0.894383
378.400 0.889740
378.500 0.876509
378.600 0.864438
378.700 0.846565
378.800 0.831941
378.900 0.826137
379.000 0.822191
379.100 0.814763
379.200 0.797818
379.300 0.770427
379.400 0.729805
379.500 0.674559
379.600 0.618849
379.700 0.563138
379.800 0.541318
379.900 0.572423
380.000 0.652971
380.100 0.722377
380.200 0.786676
380.300 0.815227
380.400 0.835190
380.500 0.841922
380.600 0.846797
380.700 0.861421
380.800 0.881616
380.900 0.905060
381.000 0.920381
381.100 0.920381
381.200 0.896240
381.300 0.871866
381.400 0.852368
381.500 0.853296
381.600 0.870474
381.700 0.892061
381.800 0.897864
381.900 0.875116
382.000 0.854225
382.100 0.846565
382.200 0.851671
382.300 0.849814
382.400 0.823352
382.500 0.798747
382.600 0.780873
382.700 0.767177
382.800 0.749071
382.900 0.731894
383.000 0.717967
383.100 0.684773
383.200 0.643222
383.300 0.577298
383.400 0.516945
383.500 0.496982
383.600 0.511142
383.700 0.549443
383.800 0.601439
383.900 0.646936
384.000 0.686165
384.100 0.735840
384.200 0.777159
384.300 0.823352
384.400 0.855385
384.500 0.873491
384.600 0.890669
384.700 0.907149
384.800 0.916667
384.900 0.911096
385.000 0.906221
385.100 0.919220
385.200 0.942433
385.300 0.963324
385.400 0.963556
385.500 0.948004
385.600 0.931291
385.700 0.921077
385.800 0.908078
385.900 0.904132
386.000 0.914345
386.100 0.936630
386.200 0.954968
386.300 0.961235
386.400 0.955896
386.500 0.948700
386.600 0.951486
386.700 0.957985
386.800 0.963788
386.900 0.961467
387.000 0.942433
387.100 0.923398
387.200 0.898097
387.300 0.886722
387.400 0.886026
387.500 0.891365
387.600 0.885097
387.700 0.858867
387.800 0.837279
387.900 0.830780
388.000 0.838672
388.100 0.839601
388.200 0.825209
388.300 0.805246
388.400 0.773445
388.500 0.727019
388.600 0.672470
388.700 0.596797
388.800 0.548514
388.900 0.540390
389.000 0.582869
389.100 0.650186
389.200 0.716806
389.300 0.750232
389.400 0.770659
389.500 0.790158
389.600 0.813370
389.700 0.836815
389.800 0.855617
389.900 0.863974
390.000 0.871634
390.100 0.882544
390.200 0.889276
390.300 0.895543
390.400 0.890901
390.500 0.889276
390.600 0.898793
390.700 0.923630
390.800 0.952182
390.900 0.977948
391.000 0.989090
391.100 0.991179
391.200 0.989090
391.300 0.983055
391.400 0.971681
391.500 0.966806
391.600 0.970056
391.700 0.970288
391.800 0.964020
391.900 0.954039
392.000 0.949629
392.100 0.947075
392.200 0.946147
392.300 0.950557
392.400 0.952878
392.500 0.950325
392.600 0.926648
392.700 0.894615
392.800 0.848189
392.900 0.794104
393.000 0.725395
393.100 0.613742
393.200 0.493500
393.300 0.404596
393.400 0.404828
393.500 0.492108
393.600 0.625580
393.700 0.729805
393.800 0.825673
393.900 0.877205
394.000 0.908774
394.100 0.927577
394.200 0.930594
394.300 0.930130
394.400 0.937094
394.500 0.944986
394.600 0.956128
394.700 0.960074
394.800 0.954968
394.900 0.948700
395.000 0.942201
395.100 0.938254
395.200 0.935933
395.300 0.941736
395.400 0.941504
395.500 0.931523
395.600 0.918524
395.700 0.905292
395.800 0.904364
395.900 0.901578
396.000 0.875580
396.100 0.844475
396.200 0.801532
396.300 0.763928
396.400 0.724466
396.500 0.646704
396.600 0.549443
396.700 0.419684
396.800 0.331476
396.900 0.305710
397.000 0.362581
397.100 0.459378
397.200 0.578227
397.300 0.654364
397.400 0.725162
397.500 0.773445
397.600 0.812210
397.700 0.847029
397.800 0.874652
397.900 0.902739
398.000 0.915274
398.100 0.919220
398.200 0.926184
398.300 0.937558
398.400 0.954271
398.500 0.970520
398.600 0.983287
398.700 0.993500
398.800 1.003946
398.900 1.009517
399.000 1.013928
399.100 1.021820
399.200 1.027159
399.300 1.035980
399.400 1.037837
399.500 1.031105
399.600 1.013463
399.700 1.001393
399.800 1.007196
399.900 1.026230
400.000 1.037837
400.100 1.045961
400.200 1.045961
400.300 1.038301
400.400 1.024373
400.500 1.012303
400.600 1.014392
400.700 1.028319
400.800 1.048282
400.900 1.059656
401.000 1.062906
401.100 1.063603
401.200 1.061513
401.300 1.059656
401.400 1.061049
401.500 1.067549
401.600 1.073584
401.700 1.077762
401.800 1.083565
401.900 1.086815
402.000 1.090297
402.100 1.087744
402.200 1.082405
402.300 1.077994
402.400 1.073120
402.500 1.074513
402.600 1.082869
402.700 1.094940
402.800 1.092851
402.900 1.083101
403.000 1.063603
403.100 1.050139
403.200 1.045265
403.300 1.047586
403.400 1.055014
403.500 1.072191
403.600 1.090761
403.700 1.111188
403.800 1.116760
403.900 1.110956
404.000 1.101903
404.100 1.096797
404.200 1.096565
404.300 1.085190
404.400 1.057335
404.500 1.031569
404.600 1.027855
404.700 1.050371
404.800 1.077530
404.900 1.095868
405.000 1.098654
405.100 1.101671
405.200 1.097493
405.300 1.088672
405.400 1.081012
405.500 1.075673
405.600 1.075209
405.700 1.074977
405.800 1.077066
405.900 1.091226
406.000 1.099350
406.100 1.090761
406.200 1.061281
406.300 1.038533
406.400 1.029480
406.500 1.028784
406.600 1.035051
406.700 1.042015
406.800 1.044800
406.900 1.042943
407.000 1.034819
407.100 1.017177
407.200 1.007892
407.300 1.013231
407.400 1.022516
407.500 1.022284
407.600 1.000929
407.700 0.981198
407.800 0.971681
407.900 0.986305
408.000 1.009517
408.100 1.024605
408.200 1.024373
408.300 1.013231
408.400 1.001625
408.500 0.993965
408.600 0.997214
408.700 1.002089
408.800 1.005803
408.900 1.004643
409.000 0.997214
409.100 0.989322
409.200 0.980966
409.300 0.961931
409.400 0.944986
409.500 0.921541
409.600 0.895775
409.700 0.866295
409.800 0.822888
409.900 0.770427
410.000 0.687790
410.100 0.629294
410.200 0.619081
410.300 0.678969
410.400 0.752553
410.500 0.825209
410.600 0.863510
410.700 0.890204
410.800 0.908542
410.900 0.922238
411.000 0.940344
411.100 0.952646
411.200 0.968199
411.300 0.981662
411.400 0.995822
411.500 1.010214
411.600 1.015088
411.700 1.011838
411.800 1.005803
411.900 1.000464
412.000 1.002089
412.100 1.008821
412.200 1.017874
412.300 1.026230
412.400 1.034355
412.500 1.038301
412.600 1.038997
412.700 1.038301
412.800 1.038765
412.900 1.041783
413.000 1.038997
413.100 1.029016
413.200 1.017177
413.300 1.017874
413.400 1.031337
413.500 1.045961
413.600 1.057335
413.700 1.069638
413.800 1.080780
413.900 1.089833
414.000 1.087976
414.100 1.073816
414.200 1.052925
414.300 1.037372
414.400 1.037604
414.500 1.047818
414.600 1.063603
414.700 1.067549
414.800 1.066852
414.900 1.069870
415.000 1.072888
415.100 1.074977
415.200 1.068709
415.300 1.060585
415.400 1.054318
415.500 1.053157
