# Wavelength (nm)   F_lamA (normalized erg/cm2/s/A)9.100 0.000024
9.400 0.000035
9.600 0.000046
9.800 0.000059
10.000 0.000074
10.200 0.000092
10.400 0.000114
10.600 0.000140
10.800 0.000170
11.000 0.000205
11.400 0.000291
11.800 0.000400
12.100 0.000501
12.500 0.000661
12.700 0.000754
12.800 0.000803
13.100 0.000965
13.200 0.001024
13.400 0.001148
13.700 0.001353
14.000 0.001580
14.300 0.001831
14.700 0.002202
15.100 0.002615
15.500 0.003072
15.900 0.003568
16.200 0.003967
16.600 0.004536
17.000 0.005143
17.300 0.005622
17.700 0.006291
18.000 0.006815
18.200 0.007172
18.600 0.007907
19.100 0.008866
19.400 0.009457
19.800 0.010261
20.200 0.011084
20.500 0.011708
21.000 0.012764
21.600 0.014045
22.000 0.014907
22.300 0.015550
22.700 0.016410
23.000 0.146604
23.400 0.145245
24.000 0.143665
24.600 0.142778
25.200 0.141863
25.700 0.136429
26.000 0.138287
26.400 0.138508
26.900 0.136263
27.400 0.134100
27.900 0.130496
28.400 0.129360
29.000 0.126199
29.600 0.121763
30.100 0.114278
30.800 0.112309
31.800 0.111034
32.800 0.106626
33.800 0.101719
34.800 0.097117
35.700 0.094039
36.600 0.091267
37.500 0.087663
38.500 0.082867
39.500 0.080399
40.500 0.077571
41.400 0.074660
42.200 0.071888
43.000 0.069365
44.100 0.066787
45.100 0.064125
46.000 0.061464
47.000 0.058996
48.000 0.056862
49.000 0.054311
50.000 0.052564
50.600 0.052315
51.200 0.054256
52.000 0.052426
53.000 0.050347
54.000 0.047657
55.000 0.045911
56.000 0.045439
57.000 0.043998
58.000 0.042223
59.000 0.041004
60.000 0.039285
61.000 0.037760
62.000 0.037178
63.000 0.035819
64.000 0.034877
65.000 0.033657
65.800 0.032576
66.500 0.032160
67.500 0.031300
68.500 0.029970
69.500 0.029415
70.500 0.028112
71.600 0.027702
72.600 0.026945
73.500 0.026285
74.500 0.025451
75.500 0.024699
76.500 0.023834
77.500 0.023346
78.500 0.022675
79.500 0.022115
80.500 0.021580
81.500 0.021056
82.500 0.020549
83.500 0.019606
84.500 0.019504
85.500 0.018983
86.500 0.018597
87.500 0.018159
88.500 0.017716
89.500 0.017289
90.500 0.016809
91.500 0.019775
92.500 0.028334
93.500 0.036235
94.500 0.047380
95.500 0.051345
96.500 0.056862
97.500 0.037150
98.500 0.055808
99.500 0.053008
100.500 0.055198
101.500 0.052786
102.500 0.036291
103.500 0.048406
104.500 0.053951
105.500 0.052814
106.500 0.049598
107.500 0.050430
108.500 0.046909
109.500 0.049293
110.500 0.047491
111.500 0.046742
112.500 0.044414
113.500 0.045412
114.500 0.043721
115.500 0.043388
116.500 0.042917
117.500 0.038176
118.500 0.040726
119.500 0.038065
120.500 0.034821
121.500 0.024300
122.500 0.034322
123.500 0.036623
124.500 0.036679
125.500 0.036291
126.500 0.035403
127.500 0.035625
128.500 0.035209
129.500 0.033546
130.500 0.033102
131.500 0.033601
132.500 0.032742
133.500 0.031716
134.500 0.032132
135.500 0.031716
136.500 0.030995
137.500 0.030718
138.500 0.030635
139.500 0.029110
140.500 0.028861
141.500 0.029997
142.500 0.029581
143.500 0.029470
144.200 0.029914
144.700 0.029637
145.500 0.029942
146.500 0.029082
147.500 0.029193
148.500 0.029276
149.500 0.029332
150.500 0.029609
151.200 0.029110
151.700 0.028916
152.500 0.029387
153.500 0.029082
154.500 0.029082
155.500 0.029387
156.500 0.029138
157.500 0.031467
158.500 0.033019
159.500 0.034405
160.500 0.032381
161.500 0.034100
162.500 0.033546
163.500 0.034710
164.500 0.039229
165.500 0.033296
166.500 0.043055
167.200 0.036540
167.700 0.048461
168.500 0.051372
169.500 0.049570
170.500 0.052232
171.500 0.057887
172.500 0.059911
173.500 0.065650
174.500 0.065567
175.500 0.071833
176.500 0.062074
177.500 0.069920
178.500 0.073690
179.500 0.081869
180.500 0.097311
181.500 0.100416
182.500 0.093679
183.500 0.098337
184.500 0.083449
185.500 0.092792
186.500 0.102883
187.500 0.102357
188.500 0.104602
189.500 0.110812
190.500 0.106876
191.500 0.115331
192.500 0.117300
193.500 0.101857
194.500 0.124924
195.500 0.127474
196.700 0.138314
197.600 0.134793
198.400 0.134239
199.500 0.133906
200.500 0.126920
201.500 0.133296
202.500 0.119102
203.500 0.139978
204.500 0.150901
205.500 0.149737
206.500 0.146853
207.400 0.165539
207.800 0.169199
208.500 0.168007
209.500 0.162850
210.500 0.157333
211.500 0.167009
212.500 0.164264
213.500 0.151206
214.500 0.170696
215.500 0.168644
216.500 0.158470
217.500 0.159745
218.500 0.172914
219.500 0.189909
220.500 0.182950
221.500 0.168727
222.500 0.178043
223.500 0.204491
224.500 0.190518
225.500 0.176352
226.500 0.169809
227.500 0.183615
228.500 0.196978
229.500 0.181896
230.500 0.198669
231.500 0.199446
232.500 0.176657
233.500 0.179373
234.500 0.149737
235.500 0.202523
236.500 0.161658
237.500 0.188217
238.500 0.139839
239.500 0.165290
240.500 0.162878
241.500 0.169227
242.500 0.214749
243.500 0.209426
244.500 0.225811
245.500 0.225645
246.500 0.227668
247.500 0.208899
248.500 0.188605
249.500 0.192625
250.500 0.237815
251.300 0.190602
251.800 0.161492
252.500 0.159967
253.500 0.181813
254.500 0.189604
255.500 0.222318
256.500 0.214610
257.500 0.240532
258.500 0.237316
259.500 0.230191
260.500 0.215997
261.500 0.200749
262.500 0.240089
263.500 0.266925
264.500 0.319656
265.500 0.341281
266.500 0.303299
267.500 0.325478
268.500 0.339617
269.500 0.299972
270.500 0.317438
271.500 0.281120
272.500 0.281397
273.500 0.305794
274.500 0.237510
275.500 0.268589
276.500 0.306903
277.500 0.326033
278.500 0.287774
279.500 0.140837
280.500 0.174134
281.500 0.339895
282.500 0.361519
283.500 0.354034
284.500 0.328805
285.500 0.258802
286.500 0.352925
287.500 0.364569
288.500 0.365401
289.500 0.372609
291.000 0.415858
293.000 0.405046
295.000 0.398392
297.000 0.405600
299.000 0.413640
301.000 0.420571
303.000 0.428057
305.000 0.442196
307.000 0.440255
309.000 0.439978
311.000 0.447463
313.000 0.445800
315.000 0.446632
317.000 0.463543
319.000 0.442473
321.000 0.466315
323.000 0.449127
325.000 0.493208
327.000 0.527585
329.000 0.528694
331.000 0.529526
332.200 0.546715
332.300 0.509010
332.400 0.495980
332.500 0.511505
332.600 0.505961
332.700 0.495426
332.800 0.501802
332.900 0.515110
333.000 0.545051
333.100 0.557250
333.200 0.544497
333.300 0.545883
333.400 0.535902
333.500 0.535348
333.600 0.525645
333.700 0.516496
333.800 0.527862
333.900 0.535348
334.000 0.540615
334.100 0.547824
334.200 0.538952
334.300 0.546160
334.400 0.558082
334.500 0.553923
334.600 0.551705
334.700 0.525090
334.800 0.498475
334.900 0.480455
335.000 0.498752
335.100 0.511783
335.200 0.507901
335.300 0.509287
335.400 0.531744
335.500 0.562517
335.600 0.558913
335.700 0.532021
335.800 0.476296
335.900 0.431938
336.000 0.401719
336.100 0.421126
336.200 0.451067
336.300 0.496257
336.400 0.525367
336.500 0.515387
336.600 0.507901
336.700 0.508733
336.800 0.504020
336.900 0.498198
337.000 0.457444
337.100 0.426670
337.200 0.425284
337.300 0.452454
337.400 0.485999
337.500 0.520377
337.600 0.531467
337.700 0.525367
337.800 0.507070
337.900 0.495980
338.000 0.504574
338.100 0.514278
338.200 0.520654
338.300 0.522040
338.400 0.524536
338.500 0.536180
338.600 0.525922
338.700 0.500416
338.800 0.481286
338.900 0.497921
339.000 0.522872
339.100 0.546437
339.200 0.534793
339.300 0.515941
339.400 0.518714
339.500 0.530080
339.600 0.550596
339.700 0.561963
339.800 0.574161
339.900 0.582479
340.000 0.579706
340.100 0.571112
340.200 0.540615
340.300 0.529526
340.400 0.517882
340.500 0.529526
340.600 0.537011
340.700 0.533130
340.800 0.518991
340.900 0.516496
341.000 0.535902
341.100 0.532853
341.200 0.521209
341.300 0.499030
341.400 0.493485
341.500 0.517882
341.600 0.544220
341.700 0.556418
341.800 0.562795
341.900 0.565012
342.000 0.572221
342.100 0.574161
342.200 0.551705
342.300 0.521763
342.400 0.513446
342.500 0.523704
342.600 0.535348
342.700 0.550319
342.800 0.573330
342.900 0.591627
343.000 0.605767
343.100 0.580538
343.200 0.551982
343.300 0.537843
343.400 0.556695
343.500 0.587192
343.600 0.591350
343.700 0.572221
343.800 0.549210
343.900 0.531189
344.000 0.515941
344.100 0.497921
344.200 0.487663
344.300 0.488217
344.400 0.497366
344.500 0.510396
344.600 0.538398
344.700 0.571666
344.800 0.593845
344.900 0.604658
345.000 0.586083
345.100 0.556418
345.200 0.535348
345.300 0.534793
345.400 0.545051
345.500 0.560022
345.600 0.565290
345.700 0.564181
345.800 0.558359
345.900 0.548655
346.000 0.530358
346.100 0.517605
346.200 0.530912
346.300 0.539229
346.400 0.549210
346.500 0.539229
346.600 0.540338
346.700 0.558913
346.800 0.581370
346.900 0.598836
347.000 0.604935
347.100 0.596618
347.200 0.584419
347.300 0.551982
347.400 0.525090
347.500 0.516218
347.600 0.519545
347.700 0.550319
347.800 0.574993
347.900 0.586914
348.000 0.599945
348.100 0.601054
348.200 0.593845
348.300 0.587469
348.400 0.583033
348.500 0.590518
348.600 0.602994
348.700 0.601608
348.800 0.590241
348.900 0.568062
349.000 0.550042
349.100 0.556141
349.200 0.574993
349.300 0.579706
349.400 0.575270
349.500 0.565012
349.600 0.555309
349.700 0.561408
349.800 0.558636
349.900 0.560577
350.000 0.559468
350.100 0.558082
350.200 0.571389
350.300 0.579706
350.400 0.581370
350.500 0.570003
350.600 0.557250
350.700 0.550873
350.800 0.545883
350.900 0.555309
351.000 0.560299
351.100 0.560854
351.200 0.550596
351.300 0.536734
351.400 0.537566
351.500 0.550319
351.600 0.584696
351.700 0.610480
351.800 0.614084
351.900 0.588301
352.000 0.565290
352.100 0.555032
352.200 0.548101
352.300 0.538952
352.400 0.520932
352.500 0.507624
352.600 0.519268
352.700 0.537843
352.800 0.560854
352.900 0.580261
353.000 0.592736
353.100 0.604380
353.200 0.596340
353.300 0.560299
353.400 0.538398
353.500 0.534516
353.600 0.566121
353.700 0.606044
353.800 0.622124
353.900 0.628223
354.000 0.620460
354.100 0.613252
354.200 0.611866
354.300 0.624896
354.400 0.634045
354.500 0.628500
354.600 0.620737
354.700 0.610757
354.800 0.606598
354.900 0.611034
355.000 0.622955
355.100 0.634877
355.200 0.628500
355.300 0.605767
355.400 0.588855
355.500 0.591905
355.600 0.605212
355.700 0.623233
355.800 0.635986
355.900 0.636540
356.000 0.634322
356.100 0.633213
356.200 0.627391
356.300 0.611034
356.400 0.586083
356.500 0.561131
356.600 0.551705
356.700 0.556141
356.800 0.559468
356.900 0.556973
357.000 0.541724
357.100 0.531189
357.200 0.532576
357.300 0.538952
357.400 0.547546
357.500 0.559745
357.600 0.570280
357.700 0.577488
357.800 0.583865
357.900 0.575825
358.000 0.557250
358.100 0.540061
358.200 0.528971
358.300 0.531189
358.400 0.528140
358.500 0.513723
358.600 0.493485
358.700 0.483782
358.800 0.498198
358.900 0.533685
359.000 0.566121
359.100 0.582201
359.200 0.579152
359.300 0.573052
359.400 0.578320
359.500 0.595509
359.600 0.611589
359.700 0.619074
359.800 0.619074
359.900 0.616302
360.000 0.613252
360.100 0.594400
360.200 0.581092
360.300 0.576657
360.400 0.586914
360.500 0.595509
360.600 0.588855
360.700 0.577765
360.800 0.565290
360.900 0.562795
361.000 0.565012
361.100 0.570557
361.200 0.582479
361.300 0.593568
361.400 0.606321
361.500 0.629609
361.600 0.626282
361.700 0.607707
361.800 0.583310
361.900 0.564181
362.000 0.576102
362.100 0.595786
362.200 0.609371
362.300 0.619074
362.400 0.626559
362.500 0.645689
362.600 0.671472
362.700 0.695592
362.800 0.686443
362.900 0.653174
363.000 0.602440
363.100 0.574439
363.200 0.583865
363.300 0.609648
363.400 0.623233
363.500 0.616579
363.600 0.614638
363.700 0.632104
363.800 0.650956
363.900 0.659551
364.000 0.660937
364.100 0.654561
364.200 0.640699
364.300 0.628500
364.400 0.619351
364.500 0.613252
364.600 0.607707
364.700 0.603826
364.800 0.602717
364.900 0.601054
365.000 0.602717
365.100 0.608539
365.200 0.625728
365.300 0.642362
365.400 0.658996
365.500 0.676462
365.600 0.687829
365.700 0.691988
365.800 0.688106
365.900 0.684502
366.000 0.683393
366.100 0.673690
366.200 0.661214
366.300 0.651511
366.400 0.655392
366.500 0.665650
366.600 0.670640
366.700 0.670086
366.800 0.658719
366.900 0.644857
367.000 0.640699
367.100 0.647907
367.200 0.660660
367.300 0.669254
367.400 0.667868
367.500 0.662323
367.600 0.646798
367.700 0.626559
367.800 0.610202
367.900 0.611034
368.000 0.619351
368.100 0.624619
368.200 0.628777
368.300 0.628777
368.400 0.631827
368.500 0.625728
368.600 0.618797
368.700 0.620737
368.800 0.635431
368.900 0.658719
369.000 0.667868
369.100 0.669531
369.200 0.667591
369.300 0.664264
369.400 0.663432
369.500 0.668423
369.600 0.666759
369.700 0.658996
369.800 0.668977
369.900 0.685889
370.000 0.707513
370.100 0.703632
370.200 0.668700
370.300 0.621569
370.400 0.588301
370.500 0.578874
370.600 0.586360
370.700 0.599667
370.800 0.613806
370.900 0.617688
371.000 0.605212
371.100 0.596895
371.200 0.599667
371.300 0.627946
371.400 0.665096
371.500 0.694760
371.600 0.709454
371.700 0.705572
371.800 0.676740
371.900 0.626837
372.000 0.554200
372.100 0.510119
372.200 0.519823
372.300 0.566121
372.400 0.631273
372.500 0.671749
372.600 0.683393
372.700 0.685057
372.800 0.687275
372.900 0.691711
373.000 0.691156
373.100 0.668977
373.200 0.600499
373.300 0.535071
373.400 0.484059
373.500 0.471583
373.600 0.503188
373.700 0.563072
373.800 0.618797
373.900 0.674522
374.000 0.706959
374.100 0.715553
374.200 0.696146
374.300 0.672027
374.400 0.646243
374.500 0.622678
374.600 0.609093
374.700 0.579429
374.800 0.543942
374.900 0.512614
375.000 0.507901
375.100 0.536180
375.200 0.585528
375.300 0.656778
375.400 0.706404
375.500 0.728029
375.600 0.725811
375.700 0.701691
375.800 0.672858
375.900 0.659274
376.000 0.666759
376.100 0.690324
376.200 0.702523
376.300 0.703077
376.400 0.695592
376.500 0.685611
376.600 0.671195
376.700 0.649016
376.800 0.609925
376.900 0.570280
377.000 0.542002
377.100 0.556695
377.200 0.598836
377.300 0.652620
377.400 0.686998
377.500 0.701691
377.600 0.708899
377.700 0.721652
377.800 0.748544
377.900 0.774050
378.000 0.798170
378.100 0.805378
378.200 0.800388
378.300 0.791794
378.400 0.785417
378.500 0.772387
378.600 0.760189
378.700 0.739673
378.800 0.724979
378.900 0.725256
379.000 0.728861
379.100 0.728861
379.200 0.719712
379.300 0.693928
379.400 0.661769
379.500 0.616302
379.600 0.567508
379.700 0.521486
379.800 0.505129
379.900 0.534516
380.000 0.611589
380.100 0.678680
380.200 0.728306
380.300 0.746604
380.400 0.756307
380.500 0.757416
380.600 0.755753
380.700 0.761852
380.800 0.774605
380.900 0.794012
381.000 0.810091
381.100 0.809814
381.200 0.781813
381.300 0.754367
381.400 0.730801
381.500 0.726365
381.600 0.744386
381.700 0.765456
381.800 0.770169
381.900 0.744663
382.000 0.720266
382.100 0.714721
382.200 0.730524
382.300 0.736069
382.400 0.711395
382.500 0.686998
382.600 0.672027
382.700 0.658719
382.800 0.648739
382.900 0.639867
383.000 0.629332
383.100 0.607707
383.200 0.573052
383.300 0.521209
383.400 0.476573
383.500 0.458553
383.600 0.472138
383.700 0.501525
383.800 0.538398
383.900 0.573330
384.000 0.605212
384.100 0.647630
384.200 0.689770
384.300 0.733296
384.400 0.762961
384.500 0.773496
384.600 0.787358
384.700 0.800388
384.800 0.804269
384.900 0.795675
385.000 0.784308
385.100 0.794012
385.200 0.815359
385.300 0.836429
385.400 0.837538
385.500 0.822567
385.600 0.802052
385.700 0.784308
385.800 0.763238
385.900 0.755753
386.000 0.764902
386.100 0.787635
386.200 0.813141
386.300 0.829498
386.400 0.827280
386.500 0.821458
386.600 0.822013
386.700 0.828944
386.800 0.836706
386.900 0.833380
387.000 0.815359
387.100 0.793457
387.200 0.768783
387.300 0.760189
387.400 0.765456
387.500 0.777655
387.600 0.775991
387.700 0.753812
387.800 0.733019
387.900 0.725534
388.000 0.737178
388.100 0.744940
388.200 0.731910
388.300 0.717771
388.400 0.698642
388.500 0.659551
388.600 0.609371
388.700 0.548933
388.800 0.509010
388.900 0.509842
389.000 0.551151
389.100 0.611866
389.200 0.665096
389.300 0.688106
389.400 0.697533
389.500 0.711672
389.600 0.730247
389.700 0.748544
389.800 0.760189
389.900 0.762961
390.000 0.769615
390.100 0.780704
390.200 0.779318
390.300 0.774882
390.400 0.761575
390.500 0.757971
390.600 0.766842
390.700 0.792625
390.800 0.821181
390.900 0.845855
391.000 0.857499
391.100 0.859994
391.200 0.861658
391.300 0.858608
391.400 0.845024
391.500 0.836706
391.600 0.836152
391.700 0.831993
391.800 0.822567
391.900 0.809260
392.000 0.800665
392.100 0.794566
392.200 0.794289
392.300 0.803161
392.400 0.805933
392.500 0.802329
392.600 0.775437
392.700 0.741336
392.800 0.692265
392.900 0.632104
393.000 0.561408
393.100 0.451899
393.200 0.349044
393.300 0.278902
393.400 0.273080
393.500 0.344608
393.600 0.461325
393.700 0.562240
393.800 0.659551
393.900 0.719989
394.000 0.756584
394.100 0.779041
394.200 0.786526
394.300 0.782090
394.400 0.782645
394.500 0.797061
394.600 0.818409
394.700 0.829221
394.800 0.825062
394.900 0.817300
395.000 0.813973
395.100 0.810923
395.200 0.810091
395.300 0.822290
395.400 0.828389
395.500 0.822567
395.600 0.810646
395.700 0.798170
395.800 0.799002
395.900 0.799002
396.000 0.771555
396.100 0.740782
396.200 0.704464
396.300 0.670363
396.400 0.636817
396.500 0.556141
396.600 0.461880
396.700 0.345994
396.800 0.273052
396.900 0.260493
397.000 0.322983
397.100 0.415026
397.200 0.520377
397.300 0.595509
397.400 0.657610
397.500 0.704464
397.600 0.739396
397.700 0.772110
397.800 0.797061
397.900 0.820072
398.000 0.827003
398.100 0.825340
398.200 0.830330
398.300 0.838093
398.400 0.852232
398.500 0.866094
398.600 0.878569
398.700 0.893540
398.800 0.903798
398.900 0.902135
399.000 0.898808
399.100 0.902689
399.200 0.911284
399.300 0.920155
399.400 0.921264
399.500 0.914888
399.600 0.895481
399.700 0.883560
399.800 0.879956
399.900 0.894927
400.000 0.912670
400.100 0.926255
400.200 0.932354
400.300 0.927641
400.400 0.909343
400.500 0.890213
400.600 0.892709
400.700 0.909066
400.800 0.930690
400.900 0.942612
401.000 0.946493
401.100 0.948156
401.200 0.947325
401.300 0.944829
401.400 0.945384
401.500 0.953147
401.600 0.957860
401.700 0.957860
401.800 0.961741
401.900 0.964236
402.000 0.967563
402.100 0.964791
402.200 0.960632
402.300 0.956196
402.400 0.951206
402.500 0.953701
402.600 0.962573
402.700 0.980871
402.800 0.983088
402.900 0.972831
403.000 0.946216
403.100 0.925146
403.200 0.915165
403.300 0.917383
403.400 0.928195
403.500 0.949820
403.600 0.972553
403.700 0.995287
403.800 1.000277
403.900 0.994455
404.000 0.984752
404.100 0.977266
404.200 0.976435
404.300 0.961741
404.400 0.929581
404.500 0.900194
404.600 0.892986
404.700 0.920987
404.800 0.956196
404.900 0.979484
405.000 0.982257
405.100 0.984752
405.200 0.980316
405.300 0.972276
405.400 0.966454
405.500 0.961464
405.600 0.962018
405.700 0.961464
405.800 0.964513
405.900 0.980039
406.000 0.988079
406.100 0.980039
406.200 0.943166
406.300 0.912670
406.400 0.903798
406.500 0.910729
406.600 0.922650
406.700 0.932631
406.800 0.936512
406.900 0.936235
407.000 0.927086
407.100 0.904353
407.200 0.896590
407.300 0.907125
407.400 0.916274
407.500 0.913224
407.600 0.890213
407.700 0.871084
407.800 0.863599
407.900 0.882174
408.000 0.908511
408.100 0.929859
408.200 0.935958
408.300 0.928195
408.400 0.916274
408.500 0.908234
408.600 0.914888
408.700 0.927641
408.800 0.940116
408.900 0.941225
409.000 0.932354
409.100 0.925146
409.200 0.925146
409.300 0.914888
409.400 0.901026
409.500 0.873302
409.600 0.847519
409.700 0.826449
409.800 0.793734
409.900 0.748267
410.000 0.674245
410.100 0.620737
410.200 0.609925
410.300 0.670363
410.400 0.741059
410.500 0.802606
410.600 0.834766
410.700 0.853895
410.800 0.866648
410.900 0.872747
411.000 0.882451
411.100 0.892709
411.200 0.904907
411.300 0.916828
411.400 0.927363
411.500 0.940948
411.600 0.943721
411.700 0.935681
411.800 0.923759
411.900 0.912393
412.000 0.915442
412.100 0.925423
412.200 0.936235
412.300 0.941780
412.400 0.944552
412.500 0.950652
412.600 0.952869
412.700 0.951206
412.800 0.949820
412.900 0.953424
413.000 0.948434
413.100 0.934017
413.200 0.918492
413.300 0.917383
413.400 0.931799
413.500 0.948711
413.600 0.961741
413.700 0.973940
413.800 0.984752
413.900 0.995010
414.000 0.989742
414.100 0.970613
414.200 0.944829
414.300 0.923205
414.400 0.925423
414.500 0.941225
414.600 0.960909
414.700 0.964791
414.800 0.964513
414.900 0.967840
415.000 0.970890
415.100 0.973940
415.200 0.969227
415.300 0.962850
415.400 0.955919
415.500 0.952038
