# Wavelength (nm)   F_lamA (normalized erg/cm2/s/A)9.100 0.000001
9.400 0.000002
9.600 0.000003
9.800 0.000005
10.000 0.000008
10.200 0.000012
10.400 0.000018
10.600 0.000027
10.800 0.000039
11.000 0.000055
11.400 0.000108
11.800 0.000201
12.100 0.000310
12.500 0.000533
12.700 0.000689
12.800 0.000781
13.100 0.001121
13.200 0.001260
13.400 0.001581
13.700 0.002191
14.000 0.002987
14.300 0.004012
14.700 0.005817
15.100 0.008244
15.500 0.011435
15.900 0.015566
16.200 0.019384
16.600 0.025584
17.000 0.033257
17.300 0.040092
17.700 0.050837
18.000 0.060248
18.200 0.067213
18.600 0.082925
19.100 0.106256
19.400 0.122263
19.800 0.146366
20.200 0.173689
20.500 0.196320
21.000 0.238546
21.600 0.296872
22.000 0.340570
22.300 0.375897
22.700 0.426679
23.000 14.057038
23.400 15.482981
24.000 19.990800
24.600 27.341306
25.200 33.413063
25.700 25.841766
26.000 36.918123
26.400 46.614535
26.900 47.442502
27.400 48.178473
27.900 46.320147
28.400 48.730451
29.000 48.482061
29.600 44.572217
30.100 30.892364
30.800 38.399264
31.800 47.801288
32.800 47.920883
33.800 46.973321
34.800 46.108556
35.700 46.770929
36.600 47.322907
37.500 46.531739
38.500 44.047838
39.500 45.170193
40.500 45.225391
41.400 44.618215
42.200 43.495860
43.000 42.759890
44.100 42.815087
45.100 42.088316
46.000 40.938362
47.000 40.211592
48.000 39.852806
49.000 38.583257
50.000 38.482061
50.600 41.389144
51.200 49.015639
52.000 48.068077
53.000 47.194112
54.000 44.719411
55.000 44.176633
56.000 45.344986
57.000 44.747010
58.000 43.357866
59.000 43.146274
60.000 41.876725
61.000 40.689972
62.000 41.103956
63.000 40.220791
64.000 39.788408
65.000 38.896044
65.800 37.911684
66.500 37.976081
67.500 37.562098
68.500 36.200552
69.500 36.255750
70.500 34.857406
71.600 35.050598
72.600 34.526219
73.500 34.057038
74.500 33.321067
75.500 32.704692
76.500 31.876725
77.500 31.582337
78.500 31.021159
79.500 30.542778
80.500 30.137994
81.500 29.705612
82.500 29.300828
83.500 28.068077
84.500 28.307268
85.500 27.792088
86.500 27.497700
87.500 27.083717
88.500 26.642134
89.500 26.200552
90.500 25.611776
91.500 27.267709
92.500 45.970561
93.500 61.849126
94.500 83.845446
95.500 90.064397
96.500 101.655934
97.500 68.702852
98.500 99.356026
99.500 93.284269
100.500 96.596136
101.500 92.364305
102.500 63.817847
103.500 86.632935
104.500 90.754370
105.500 88.822447
106.500 84.443422
107.500 83.863845
108.500 78.169273
109.500 81.085557
110.500 78.417663
111.500 76.761730
112.500 73.330267
113.500 73.707452
114.500 71.453542
115.500 70.119595
116.500 68.730451
117.500 61.987121
118.500 65.124195
119.500 62.999080
120.500 59.567617
121.500 42.824287
122.500 57.414903
123.500 58.288868
124.500 57.102116
125.500 56.476541
126.500 55.289788
127.500 54.406624
128.500 53.311868
129.500 51.370745
130.500 50.515179
131.500 50.064397
132.500 48.739650
133.500 47.442502
134.500 46.973321
135.500 46.071757
136.500 44.977001
137.500 44.011040
138.500 43.229071
139.500 40.653174
140.500 39.503220
141.500 40.699172
142.500 39.714811
143.500 39.126035
144.200 38.610856
144.700 38.215271
145.500 37.562098
146.500 36.835327
147.500 36.136155
148.500 35.510580
149.500 34.774609
150.500 34.047838
151.200 33.560258
151.700 33.265869
152.500 32.713891
153.500 31.637534
154.500 30.487580
155.500 30.000000
156.500 30.009200
157.500 29.678013
158.500 29.236431
159.500 28.721251
160.500 27.856486
161.500 27.350506
162.500 26.908924
163.500 26.283349
164.500 25.197792
165.500 25.703772
166.500 25.298988
167.200 24.811408
167.700 24.921803
168.500 24.535419
169.500 24.075437
170.500 23.606256
171.500 23.008280
172.500 22.686293
173.500 22.483901
174.500 22.051518
175.500 21.692732
176.500 21.260350
177.500 20.965961
178.500 20.662374
179.500 20.321987
180.500 20.027599
181.500 19.641214
182.500 19.337626
183.500 19.034039
184.500 18.583257
185.500 18.196872
186.500 17.976081
187.500 17.782889
188.500 17.341306
189.500 16.973321
190.500 16.881325
191.500 16.494940
192.500 16.182153
193.500 16.062557
194.500 15.887764
195.500 15.473781
196.700 15.344986
197.600 15.188592
198.400 14.921803
199.500 14.581417
200.500 14.480221
201.500 14.296228
202.500 14.112236
203.500 13.854646
204.500 13.643054
205.500 11.959522
206.500 12.290708
207.400 13.127875
207.800 13.026679
208.500 12.934683
209.500 12.723091
210.500 12.585097
211.500 12.465501
212.500 12.290708
213.500 12.097516
214.500 11.904324
215.500 11.803128
216.500 11.563937
217.500 11.462741
218.500 11.241950
219.500 11.159154
220.500 10.993560
221.500 10.763569
222.500 10.671573
223.500 10.533579
224.500 10.386385
225.500 10.156394
226.500 10.101196
227.500 9.963201
228.500 9.825207
229.500 9.613615
230.500 9.475621
231.500 9.429623
232.500 9.080037
233.500 9.160994
234.500 9.029439
235.500 8.926403
236.500 8.793008
237.500 8.683533
238.500 8.463661
239.500 8.447102
240.500 8.337626
241.500 8.229071
242.500 8.136155
243.500 8.024839
244.500 7.924563
245.500 7.824287
246.500 7.720331
247.500 7.620055
248.500 7.525299
249.500 7.289788
250.500 7.332107
251.300 7.053358
251.800 7.203312
252.500 7.141674
253.500 7.051518
254.500 6.958602
255.500 6.886845
256.500 6.799448
257.500 6.722171
258.500 6.637534
259.500 6.552898
260.500 6.471021
261.500 6.389144
262.500 6.320147
263.500 6.246550
264.500 6.198712
265.500 6.124195
266.500 6.039558
267.500 5.970561
268.500 5.918123
269.500 5.820607
270.500 5.775529
271.500 5.701012
272.500 5.610856
273.500 5.507820
274.500 5.484821
275.500 5.428703
276.500 5.350506
277.500 5.322907
278.500 5.254830
279.500 5.147194
280.500 5.104876
281.500 5.086477
282.500 5.011960
283.500 4.963201
284.500 4.919043
285.500 4.858326
286.500 4.814167
287.500 4.759890
288.500 4.710212
289.500 4.656854
291.000 4.589696
293.000 4.487580
295.000 4.374425
297.000 4.300828
299.000 4.211592
301.000 4.105796
303.000 4.002760
305.000 3.904324
307.000 3.807728
309.000 3.715731
311.000 3.624655
313.000 3.535419
315.000 3.455382
317.000 3.375345
319.000 3.273229
321.000 3.200552
323.000 3.139834
325.000 3.073597
327.000 3.008280
329.000 2.942042
331.000 2.881325
332.200 2.808648
332.300 2.828887
332.400 2.817847
332.500 2.814167
332.600 2.793008
332.700 2.770009
332.800 2.757130
332.900 2.758970
333.000 2.765409
333.100 2.761730
333.200 2.748850
333.300 2.724931
333.400 2.710212
333.500 2.699172
333.600 2.684453
333.700 2.674333
333.800 2.663293
333.900 2.660534
334.000 2.645814
334.100 2.657774
334.200 2.669733
334.300 2.724011
334.400 2.762649
334.500 2.786569
334.600 2.806808
334.700 2.809568
334.800 2.770009
334.900 2.701012
335.000 2.590616
335.100 2.589696
335.200 2.620975
335.300 2.635695
335.400 2.630175
335.500 2.610856
335.600 2.606256
335.700 2.606256
335.800 2.605336
335.900 2.602576
336.000 2.609936
336.100 2.614535
336.200 2.627415
336.300 2.623735
336.400 2.619135
336.500 2.591536
336.600 2.567617
336.700 2.549218
336.800 2.538178
336.900 2.540938
337.000 2.562098
337.100 2.560258
337.200 2.537259
337.300 2.542778
337.400 2.560258
337.500 2.595216
337.600 2.606256
337.700 2.574977
337.800 2.560258
337.900 2.559338
338.000 2.586937
338.100 2.615455
338.200 2.627415
338.300 2.623735
338.400 2.610856
338.500 2.620975
338.600 2.637534
338.700 2.647654
338.800 2.647654
338.900 2.623735
339.000 2.614535
339.100 2.612695
339.200 2.628335
339.300 2.642134
339.400 2.676173
339.500 2.680773
339.600 2.661454
339.700 2.630175
339.800 2.603496
339.900 2.546458
340.000 2.517939
340.100 2.528059
340.200 2.508740
340.300 2.497700
340.400 2.505060
340.500 2.513339
340.600 2.504140
340.700 2.504140
340.800 2.515179
340.900 2.525299
341.000 2.532659
341.100 2.495860
341.200 2.494020
341.300 2.515179
341.400 2.541858
341.500 2.561178
341.600 2.563017
341.700 2.563937
341.800 2.565777
341.900 2.573137
342.000 2.574057
342.100 2.578657
342.200 2.574977
342.300 2.574057
342.400 2.565777
342.500 2.558418
342.600 2.563937
342.700 2.570377
342.800 2.586937
342.900 2.589696
343.000 2.566697
343.100 2.559338
343.200 2.552898
343.300 2.558418
343.400 2.563937
343.500 2.575897
343.600 2.582337
343.700 2.576817
343.800 2.563017
343.900 2.540938
344.000 2.498620
344.100 2.478381
344.200 2.478381
344.300 2.502300
344.400 2.521619
344.500 2.503220
344.600 2.496780
344.700 2.494020
344.800 2.517019
344.900 2.537259
345.000 2.479301
345.100 2.433303
345.200 2.414903
345.300 2.416743
345.400 2.430543
345.500 2.435143
345.600 2.437902
345.700 2.434223
345.800 2.425943
345.900 2.418583
346.000 2.411224
346.100 2.409384
346.200 2.426863
346.300 2.502300
346.400 2.469181
346.500 2.463661
346.600 2.472861
346.700 2.469181
346.800 2.462741
346.900 2.465501
347.000 2.472861
347.100 2.437902
347.200 2.432383
347.300 2.459062
347.400 2.456302
347.500 2.440662
347.600 2.413983
347.700 2.361546
347.800 2.316467
347.900 2.308188
348.000 2.339466
348.100 2.379025
348.200 2.367065
348.300 2.336707
348.400 2.339466
348.500 2.388224
348.600 2.415823
348.700 2.433303
348.800 2.465501
348.900 2.468261
349.000 2.447102
349.100 2.437902
349.200 2.458142
349.300 2.460902
349.400 2.455382
349.500 2.439742
349.600 2.409384
349.700 2.410304
349.800 2.426863
349.900 2.436983
350.000 2.413063
350.100 2.367065
350.200 2.368905
350.300 2.381785
350.400 2.366145
350.500 2.335787
350.600 2.322907
350.700 2.332107
350.800 2.349586
350.900 2.351426
351.000 2.347746
351.100 2.346826
351.200 2.339466
351.300 2.328427
351.400 2.335787
351.500 2.342226
351.600 2.359706
351.700 2.351426
351.800 2.350506
351.900 2.354186
352.000 2.352346
352.100 2.343146
352.200 2.334867
352.300 2.333947
352.400 2.352346
352.500 2.327507
352.600 2.322907
352.700 2.323827
352.800 2.335787
352.900 2.356026
353.000 2.366145
353.100 2.375345
353.200 2.388224
353.300 2.373505
353.400 2.344986
353.500 2.338546
353.600 2.344066
353.700 2.325667
353.800 2.323827
353.900 2.327507
354.000 2.347746
354.100 2.360626
354.200 2.356026
354.300 2.345906
354.400 2.350506
354.500 2.356946
354.600 2.349586
354.700 2.357866
354.800 2.369825
354.900 2.368905
355.000 2.352346
355.100 2.343146
355.200 2.352346
355.300 2.363385
355.400 2.359706
355.500 2.346826
355.600 2.332107
355.700 2.338546
355.800 2.345906
355.900 2.343146
356.000 2.336707
356.100 2.345906
356.200 2.356026
356.300 2.346826
356.400 2.334867
356.500 2.337626
356.600 2.339466
356.700 2.313707
356.800 2.318307
356.900 2.311868
357.000 2.279669
357.100 2.222631
357.200 2.211592
357.300 2.214351
357.400 2.209752
357.500 2.214351
357.600 2.229071
357.700 2.231831
357.800 2.229071
357.900 2.221711
358.000 2.228151
358.100 2.234591
358.200 2.224471
358.300 2.222631
358.400 2.226311
358.500 2.217111
358.600 2.201472
358.700 2.190432
358.800 2.181233
358.900 2.180313
359.000 2.200552
359.100 2.213431
359.200 2.211592
359.300 2.216191
359.400 2.218951
359.500 2.215271
359.600 2.209752
359.700 2.213431
359.800 2.221711
359.900 2.233671
360.000 2.254830
360.100 2.249310
360.200 2.247470
360.300 2.227231
360.400 2.213431
360.500 2.214351
360.600 2.216191
360.700 2.218031
360.800 2.228151
360.900 2.236431
361.000 2.230911
361.100 2.201472
361.200 2.200552
361.300 2.196872
361.400 2.182153
361.500 2.183993
361.600 2.205152
361.700 2.220791
361.800 2.229071
361.900 2.227231
362.000 2.204232
362.100 2.204232
362.200 2.231831
362.300 2.235511
362.400 2.223551
362.500 2.222631
362.600 2.237351
362.700 2.250230
362.800 2.240110
362.900 2.224471
363.000 2.225391
363.100 2.224471
363.200 2.210672
363.300 2.203312
363.400 2.228151
363.500 2.228151
363.600 2.182153
363.700 2.161914
363.800 2.167433
363.900 2.171113
364.000 2.176633
364.100 2.188592
364.200 2.190432
364.300 2.170193
364.400 2.142594
364.500 2.137075
364.600 2.139834
364.700 2.147194
364.800 2.156394
364.900 2.160074
365.000 2.156394
365.100 2.147194
365.200 2.144434
365.300 2.142594
365.400 2.140754
365.500 2.151794
365.600 2.159154
365.700 2.152714
365.800 2.149034
365.900 2.143514
366.000 2.130635
366.100 2.127875
366.200 2.126955
366.300 2.136155
366.400 2.140754
366.500 2.134315
366.600 2.129715
366.700 2.122355
366.800 2.118675
366.900 2.125115
367.000 2.127875
367.100 2.123275
367.200 2.120515
367.300 2.116835
367.400 2.112236
367.500 2.107636
367.600 2.116835
367.700 2.104876
367.800 2.094756
367.900 2.092916
368.000 2.096596
368.100 2.106716
368.200 2.113155
368.300 2.106716
368.400 2.093836
368.500 2.087397
368.600 2.080957
368.700 2.076357
368.800 2.091996
368.900 2.118675
369.000 2.121435
369.100 2.105796
369.200 2.106716
369.300 2.118675
369.400 2.117755
369.500 2.109476
369.600 2.091076
369.700 2.071757
369.800 2.071757
369.900 2.104876
370.000 2.154554
370.100 2.153634
370.200 2.105796
370.300 2.037718
370.400 1.989880
370.500 1.977001
370.600 2.011960
370.700 2.057038
370.800 2.083717
370.900 2.071757
371.000 2.031279
371.100 1.986201
371.200 1.956762
371.300 1.969641
371.400 2.030359
371.500 2.111316
371.600 2.149034
371.700 2.158234
371.800 2.153634
371.900 2.090156
372.000 1.985281
372.100 1.920883
372.200 1.891444
372.300 1.914443
372.400 1.982521
372.500 2.058878
372.600 2.091076
372.700 2.120515
372.800 2.135235
372.900 2.144434
373.000 2.141674
373.100 2.095676
373.200 2.011960
373.300 1.922723
373.400 1.845446
373.500 1.822447
373.600 1.863845
373.700 1.953082
373.800 2.032199
373.900 2.118675
374.000 2.170193
374.100 2.194112
374.200 2.184913
374.300 2.158234
374.400 2.140754
374.500 2.116835
374.600 2.063477
374.700 1.982521
374.800 1.896044
374.900 1.796688
375.000 1.762649
375.100 1.802208
375.200 1.888684
375.300 1.968721
375.400 2.041398
375.500 2.091076
375.600 2.123275
375.700 2.114075
375.800 2.078197
375.900 2.048758
376.000 2.033119
376.100 2.032199
376.200 2.086477
376.300 2.116835
376.400 2.108556
376.500 2.079117
376.600 2.034039
376.700 1.977001
376.800 1.894204
376.900 1.804048
377.000 1.725851
377.100 1.706532
377.200 1.773689
377.300 1.878565
377.400 1.961362
377.500 2.015639
377.600 2.050598
377.700 2.081877
377.800 2.114075
377.900 2.128795
378.000 2.144434
378.100 2.158234
378.200 2.168353
378.300 2.156394
378.400 2.145354
378.500 2.153634
378.600 2.148114
378.700 2.124195
378.800 2.104876
378.900 2.094756
379.000 2.083717
379.100 2.068997
379.200 2.054278
379.300 2.028519
379.400 1.968721
379.500 1.878565
379.600 1.770009
379.700 1.666053
379.800 1.619135
379.900 1.660534
380.000 1.784729
380.100 1.908924
380.200 1.995400
380.300 2.044158
380.400 2.075437
380.500 2.100276
380.600 2.090156
380.700 2.091076
380.800 2.105796
380.900 2.126035
381.000 2.149954
381.100 2.160074
381.200 2.136155
381.300 2.104876
381.400 2.080957
381.500 2.072677
381.600 2.073597
381.700 2.080037
381.800 2.072677
381.900 2.053358
382.000 2.031279
382.100 2.021159
382.200 2.054278
382.300 2.080957
382.400 2.070837
382.500 2.045078
382.600 2.019319
382.700 2.023919
382.800 2.021159
382.900 1.993560
383.000 1.954922
383.100 1.906164
383.200 1.831647
383.300 1.722171
383.400 1.599816
383.500 1.531739
383.600 1.537259
383.700 1.627415
383.800 1.737810
383.900 1.837167
384.000 1.901564
384.100 1.951242
384.200 1.988960
384.300 2.032199
384.400 2.073597
384.500 2.102116
384.600 2.096596
384.700 2.095676
384.800 2.090156
384.900 2.092916
385.000 2.084637
385.100 2.093836
385.200 2.108556
385.300 2.110396
385.400 2.101196
385.500 2.087397
385.600 2.068077
385.700 2.057038
385.800 2.061638
385.900 2.079117
386.000 2.085557
386.100 2.097516
386.200 2.088316
386.300 2.063477
386.400 2.056118
386.500 2.049678
386.600 2.047838
386.700 2.062557
386.800 2.080037
386.900 2.081877
387.000 2.067157
387.100 2.045998
387.200 2.019319
387.300 2.009200
387.400 2.020239
387.500 2.040478
387.600 2.045998
387.700 2.030359
387.800 2.014719
387.900 2.009200
388.000 2.021159
388.100 2.011040
388.200 1.981601
388.300 1.949402
388.400 1.919043
388.500 1.857406
388.600 1.755290
388.700 1.618215
388.800 1.499540
388.900 1.452622
389.000 1.516099
389.100 1.660534
389.200 1.796688
389.300 1.889604
389.400 1.936523
389.500 1.959522
389.600 1.977001
389.700 1.999080
389.800 2.012879
389.900 2.007360
390.000 2.006440
390.100 2.026679
390.200 2.046918
390.300 2.059798
390.400 2.060718
390.500 2.054278
390.600 2.036799
390.700 2.040478
390.800 2.073597
390.900 2.096596
391.000 2.094756
391.100 2.095676
391.200 2.091996
391.300 2.066237
391.400 2.050598
391.500 2.056118
391.600 2.063477
391.700 2.063477
391.800 2.054278
391.900 2.031279
392.000 2.022079
392.100 2.019319
392.200 2.006440
392.300 1.984361
392.400 1.981601
392.500 1.996320
392.600 1.991720
392.700 1.984361
392.800 1.963201
392.900 1.939282
393.000 1.908004
393.100 1.841766
393.200 1.684453
393.300 1.471021
393.400 1.472861
393.500 1.645814
393.600 1.774609
393.700 1.852806
393.800 1.906164
393.900 1.944802
394.000 1.981601
394.100 2.004600
394.200 2.010120
394.300 2.000000
394.400 1.991720
394.500 1.973321
394.600 1.972401
394.700 1.985281
394.800 1.988040
394.900 1.979761
395.000 1.973321
395.100 1.965961
395.200 1.962282
395.300 1.965961
395.400 1.972401
395.500 1.969641
395.600 1.954002
395.700 1.935603
395.800 1.929163
395.900 1.937443
396.000 1.938362
396.100 1.922723
396.200 1.886845
396.300 1.841766
396.400 1.788408
396.500 1.725851
396.600 1.621895
396.700 1.412144
396.800 1.188592
396.900 1.104876
397.000 1.150874
397.100 1.275989
397.200 1.440662
397.300 1.583257
397.400 1.688132
397.500 1.767249
397.600 1.825207
397.700 1.853726
397.800 1.866605
397.900 1.894204
398.000 1.908924
398.100 1.916283
398.200 1.909844
398.300 1.901564
398.400 1.911684
398.500 1.930083
398.600 1.909844
398.700 1.867525
398.800 1.922723
398.900 1.941122
399.000 1.952162
399.100 1.961362
399.200 1.966881
399.300 1.971481
399.400 1.963201
399.500 1.956762
399.600 1.936523
399.700 1.926403
399.800 1.927323
399.900 1.933763
400.000 1.928243
400.100 1.926403
400.200 1.928243
400.300 1.928243
400.400 1.929163
400.500 1.924563
400.600 1.921803
400.700 1.925483
400.800 1.935603
400.900 1.935603
401.000 1.930083
401.100 1.934683
401.200 1.936523
401.300 1.937443
401.400 1.943882
401.500 1.947562
401.600 1.953082
401.700 1.964121
401.800 1.974241
401.900 1.982521
402.000 1.979761
402.100 1.965041
402.200 1.949402
402.300 1.917203
402.400 1.867525
402.500 1.824287
402.600 1.822447
402.700 1.859246
402.800 1.902484
402.900 1.924563
403.000 1.938362
403.100 1.933763
403.200 1.932843
403.300 1.933763
403.400 1.937443
403.500 1.946642
403.600 1.954922
403.700 1.963201
403.800 1.970561
403.900 1.965961
404.000 1.966881
404.100 1.972401
404.200 1.964121
404.300 1.955842
404.400 1.944802
404.500 1.928243
404.600 1.914443
404.700 1.930083
404.800 1.950322
404.900 1.959522
405.000 1.957682
405.100 1.956762
405.200 1.961362
405.300 1.951242
405.400 1.948482
405.500 1.954922
405.600 1.956762
405.700 1.960442
405.800 1.968721
405.900 1.975161
406.000 1.967801
406.100 1.942042
406.200 1.931923
406.300 1.925483
406.400 1.881325
406.500 1.802208
406.600 1.836247
406.700 1.874885
406.800 1.877645
406.900 1.872125
407.000 1.862925
407.100 1.852806
407.200 1.851886
407.300 1.846366
407.400 1.858326
407.500 1.858326
407.600 1.837167
407.700 1.817847
407.800 1.814167
407.900 1.839006
408.000 1.866605
408.100 1.880405
408.200 1.880405
408.300 1.875805
408.400 1.858326
408.500 1.850046
408.600 1.844526
408.700 1.859246
408.800 1.874885
408.900 1.880405
409.000 1.869365
409.100 1.858326
409.200 1.851886
409.300 1.830727
409.400 1.808648
409.500 1.773689
409.600 1.736891
409.700 1.695492
409.800 1.621895
409.900 1.530819
410.000 1.416743
410.100 1.308188
410.200 1.269549
410.300 1.340386
410.400 1.488500
410.500 1.626495
410.600 1.704692
410.700 1.738730
410.800 1.761730
410.900 1.770009
411.000 1.777369
411.100 1.789328
411.200 1.807728
411.300 1.824287
411.400 1.846366
411.500 1.864765
411.600 1.874885
411.700 1.862006
411.800 1.837167
411.900 1.818767
412.000 1.816007
412.100 1.818767
412.200 1.816007
412.300 1.817847
412.400 1.830727
412.500 1.844526
412.600 1.846366
412.700 1.829807
412.800 1.805888
412.900 1.801288
413.000 1.807728
413.100 1.814167
413.200 1.812328
413.300 1.813247
413.400 1.825207
413.500 1.839006
413.600 1.846366
413.700 1.853726
413.800 1.863845
413.900 1.868445
414.000 1.868445
414.100 1.864765
414.200 1.843606
