# Wavelength (nm)   F_lamA (normalized erg/cm2/s/A)9.100 0.000764
9.400 0.000862
9.600 0.000930
9.800 0.000998
10.000 0.001068
10.200 0.001140
10.400 0.001212
10.600 0.001286
10.800 0.001361
11.000 0.001437
11.400 0.001594
11.800 0.001761
12.100 0.001896
12.500 0.002092
12.700 0.002200
12.800 0.002257
13.100 0.002444
13.200 0.002512
13.400 0.002659
13.700 0.002907
14.000 0.003200
14.300 0.003545
14.700 0.004110
15.100 0.004823
15.500 0.005721
15.900 0.006843
16.200 0.007856
16.600 0.009479
17.000 0.011456
17.300 0.013200
17.700 0.015924
18.000 0.018292
18.200 0.020041
18.600 0.023968
19.100 0.029768
19.400 0.033762
19.800 0.039743
20.200 0.046491
20.500 0.052088
21.000 0.062492
21.600 0.076868
22.000 0.087633
22.300 0.096344
22.700 0.108802
23.000 3.464229
23.400 3.814037
24.000 4.917626
24.600 6.720831
25.200 8.210336
25.700 6.352968
26.000 9.070187
26.400 11.448883
26.900 11.651997
27.400 11.832543
27.900 11.374408
28.400 11.965696
29.000 11.907019
29.600 10.945610
30.100 7.589709
30.800 9.431280
31.800 11.735500
32.800 11.764839
33.800 11.532385
34.800 11.320244
35.700 11.482735
36.600 11.615888
37.500 11.421801
38.500 10.812458
39.500 11.087791
40.500 11.101332
41.400 10.952381
42.200 10.674791
43.000 10.494245
44.100 10.507786
45.100 10.331754
46.000 10.047393
47.000 9.871361
48.000 9.781088
49.000 9.469646
50.000 9.444821
50.600 10.157978
51.200 12.031144
52.000 11.798691
53.000 11.586549
54.000 10.977206
55.000 10.844053
56.000 11.132927
57.000 10.986233
58.000 10.643196
59.000 10.593545
60.000 10.282103
61.000 9.990973
62.000 10.094787
63.000 9.878131
64.000 9.774317
65.000 9.553148
65.800 9.313925
66.500 9.329722
67.500 9.228165
68.500 8.896412
69.500 8.912209
70.500 8.569172
71.600 8.616565
72.600 8.490183
73.500 8.375085
74.500 8.196795
75.500 8.047845
76.500 7.844730
77.500 7.774769
78.500 7.639359
79.500 7.524261
80.500 7.424961
81.500 7.318890
82.500 7.224103
83.500 6.921688
84.500 6.982622
85.500 6.858497
86.500 6.788535
87.500 6.686978
88.500 6.583164
89.500 6.477093
90.500 6.332656
91.500 6.763710
92.500 11.746784
93.500 16.416159
94.500 24.057775
95.500 27.443015
96.500 31.956669
97.500 19.424509
98.500 33.694426
99.500 32.949673
100.500 34.078086
101.500 30.534868
102.500 17.774769
103.500 28.007222
104.500 32.566012
105.500 32.588580
106.500 30.918529
107.500 31.302189
108.500 29.158204
109.500 30.399458
110.500 29.338750
111.500 28.819680
112.500 27.443015
113.500 27.691266
114.500 26.675694
115.500 26.382306
116.500 25.908373
117.500 23.245317
118.500 24.215753
119.500 22.480253
120.500 19.844279
121.500 12.132701
122.500 18.946062
123.500 21.103588
124.500 21.349582
125.500 21.327014
126.500 20.832769
127.500 20.882419
128.500 20.620627
129.500 19.810427
130.500 19.453848
131.500 19.571203
132.500 19.056646
133.500 18.524035
134.500 18.530806
135.500 18.201309
136.500 17.772512
137.500 17.461070
138.500 17.224103
139.500 16.366509
140.500 16.039269
141.500 16.294290
142.500 15.973821
143.500 15.727827
144.200 15.585647
144.700 15.445723
145.500 15.208756
146.500 14.910855
147.500 14.664861
148.500 14.421124
149.500 14.154818
150.500 13.881742
151.200 13.678628
151.700 13.604153
152.500 13.367186
153.500 12.940645
154.500 12.669826
155.500 12.405777
156.500 12.322275
157.500 12.234259
158.500 12.092079
159.500 11.945385
160.500 11.584292
161.500 11.399233
162.500 11.198375
163.500 11.006545
164.500 10.665764
165.500 10.683819
166.500 10.643196
167.200 10.367863
167.700 10.446852
168.500 10.340781
169.500 10.139923
170.500 9.943579
171.500 9.740465
172.500 9.596028
173.500 9.550891
174.500 9.363575
175.500 9.268788
176.500 9.006996
177.500 8.977657
178.500 8.846761
179.500 8.749718
180.500 8.634620
181.500 8.478899
182.500 8.361544
183.500 8.237418
184.500 8.036561
185.500 7.874069
186.500 7.792823
187.500 7.754457
188.500 7.562627
189.500 7.406906
190.500 7.402392
191.500 7.228617
192.500 7.113518
193.500 7.063868
194.500 7.027759
195.500 6.842699
196.700 6.817874
197.600 6.759197
198.400 6.644098
199.500 6.492891
200.500 6.463552
201.500 6.386820
202.500 6.323629
203.500 6.222072
204.500 6.143083
205.500 5.653351
206.500 5.718799
207.400 5.944482
207.800 5.881291
208.500 5.856466
209.500 5.754909
210.500 5.712029
211.500 5.662379
212.500 5.599188
213.500 5.508914
214.500 5.445723
215.500 5.396073
216.500 5.290002
217.500 5.242609
218.500 5.170390
219.500 5.145565
220.500 5.062063
221.500 4.967276
222.500 4.913112
223.500 4.890544
224.500 4.820582
225.500 4.725796
226.500 4.689686
227.500 4.649063
228.500 4.603927
229.500 4.504626
230.500 4.466260
231.500 4.427894
232.500 4.184157
233.500 4.312796
234.500 4.222523
235.500 4.218009
236.500 4.134507
237.500 4.111939
238.500 4.001354
239.500 4.012638
240.500 3.960731
241.500 3.920108
242.500 3.899797
243.500 3.841119
244.500 3.809524
245.500 3.773415
246.500 3.716994
247.500 3.676371
248.500 3.647032
249.500 3.552246
250.500 3.581584
251.300 3.480027
251.800 3.516136
252.500 3.473257
253.500 3.425863
254.500 3.396524
255.500 3.387497
256.500 3.346874
257.500 3.328820
258.500 3.294967
259.500 3.256601
260.500 3.213722
261.500 3.177612
262.500 3.155044
263.500 3.127962
264.500 3.136989
265.500 3.105394
266.500 3.058000
267.500 3.037689
268.500 3.019634
269.500 2.969984
270.500 2.954186
271.500 2.913564
272.500 2.872941
273.500 2.850372
274.500 2.798465
275.500 2.780411
276.500 2.764613
277.500 2.764613
278.500 2.733017
279.500 2.633717
280.500 2.640487
281.500 2.669826
282.500 2.635974
283.500 2.611149
284.500 2.588580
285.500 2.556985
286.500 2.547958
287.500 2.523132
288.500 2.505078
289.500 2.484766
291.000 2.462198
293.000 2.412548
295.000 2.360641
297.000 2.331302
299.000 2.292936
301.000 2.252765
303.000 2.210111
305.000 2.168585
307.000 2.126382
309.000 2.088016
311.000 2.048296
313.000 2.009704
315.000 1.974724
317.000 1.941548
319.000 1.892801
321.000 1.868201
323.000 1.836154
325.000 1.810201
327.000 1.784699
329.000 1.755134
331.000 1.728729
332.200 1.707064
332.300 1.722185
332.400 1.714060
332.500 1.705710
332.600 1.690138
332.700 1.672986
332.800 1.675243
332.900 1.681787
333.000 1.688558
333.100 1.690138
333.200 1.682690
333.300 1.669375
333.400 1.658542
333.500 1.652674
333.600 1.641616
333.700 1.624690
333.800 1.615437
333.900 1.619048
334.000 1.616114
334.100 1.626495
334.200 1.630106
334.300 1.656060
334.400 1.679756
334.500 1.691040
334.600 1.703453
334.700 1.703227
334.800 1.678176
334.900 1.631686
335.000 1.572557
335.100 1.574814
335.200 1.601896
335.300 1.617468
335.400 1.616565
335.500 1.601670
335.600 1.598510
335.700 1.603701
335.800 1.601670
335.900 1.593771
336.000 1.594448
336.100 1.589032
336.200 1.600542
336.300 1.599188
336.400 1.597156
336.500 1.583841
336.600 1.569172
336.700 1.558113
336.800 1.549763
336.900 1.552923
337.000 1.570526
337.100 1.573911
337.200 1.557888
337.300 1.556082
337.400 1.566689
337.500 1.596931
337.600 1.611374
337.700 1.585421
337.800 1.564884
337.900 1.554277
338.000 1.566915
338.100 1.587903
338.200 1.608666
338.300 1.621530
338.400 1.617919
338.500 1.617242
338.600 1.613857
338.700 1.607763
338.800 1.605281
338.900 1.604153
339.000 1.608666
339.100 1.614985
339.200 1.615437
339.300 1.611600
339.400 1.623336
339.500 1.630783
339.600 1.635071
339.700 1.623787
339.800 1.611826
339.900 1.580005
340.000 1.555179
340.100 1.563078
340.200 1.549763
340.300 1.546829
340.400 1.547506
340.500 1.551343
340.600 1.540510
340.700 1.539382
340.800 1.551117
340.900 1.560370
341.000 1.564432
341.100 1.544121
341.200 1.548409
341.300 1.567592
341.400 1.586098
341.500 1.589935
341.600 1.589483
341.700 1.589258
341.800 1.594448
341.900 1.601896
342.000 1.601896
342.100 1.600090
342.200 1.590612
342.300 1.584067
342.400 1.581133
342.500 1.578199
342.600 1.585421
342.700 1.592191
342.800 1.599639
342.900 1.603701
343.000 1.588129
343.100 1.583164
343.200 1.581359
343.300 1.587226
343.400 1.592417
343.500 1.593320
343.600 1.596028
343.700 1.596254
343.800 1.597382
343.900 1.587678
344.000 1.564658
344.100 1.545475
344.200 1.538930
344.300 1.545249
344.400 1.550891
344.500 1.550891
344.600 1.559467
344.700 1.569397
344.800 1.588580
344.900 1.600767
345.000 1.564432
345.100 1.524487
345.200 1.505529
345.300 1.498984
345.400 1.508914
345.500 1.511623
345.600 1.510720
345.700 1.510269
345.800 1.505078
345.900 1.504401
346.000 1.500564
346.100 1.498759
346.200 1.505755
346.300 1.532837
346.400 1.520650
346.500 1.518845
346.600 1.522004
346.700 1.521553
346.800 1.520876
346.900 1.522004
347.000 1.531483
347.100 1.526743
347.200 1.520424
347.300 1.514331
347.400 1.512977
347.500 1.507786
347.600 1.504626
347.700 1.491086
347.800 1.475965
347.900 1.467389
348.000 1.477996
348.100 1.491763
348.200 1.482510
348.300 1.467615
348.400 1.466712
348.500 1.491763
348.600 1.515008
348.700 1.526969
348.800 1.536448
348.900 1.529677
349.000 1.517265
349.100 1.515008
349.200 1.526969
349.300 1.531257
349.400 1.523584
349.500 1.509592
349.600 1.501016
349.700 1.507335
349.800 1.515685
349.900 1.514105
350.000 1.489731
350.100 1.475965
350.200 1.483638
350.300 1.488377
350.400 1.478673
350.500 1.462424
350.600 1.454299
350.700 1.456330
350.800 1.466486
350.900 1.471225
351.000 1.475739
351.100 1.478222
351.200 1.474385
351.300 1.461972
351.400 1.456782
351.500 1.464906
351.600 1.476416
351.700 1.480253
351.800 1.482735
351.900 1.481833
352.000 1.481381
352.100 1.475965
352.200 1.469194
352.300 1.470323
352.400 1.475739
352.500 1.474611
352.600 1.476190
352.700 1.473708
352.800 1.475965
352.900 1.483412
353.000 1.492440
353.100 1.500113
353.200 1.508012
353.300 1.501693
353.400 1.484541
353.500 1.477545
353.600 1.477996
353.700 1.473257
353.800 1.475288
353.900 1.477996
354.000 1.484766
354.100 1.487249
354.200 1.487249
354.300 1.486798
354.400 1.490634
354.500 1.493342
354.600 1.495825
354.700 1.501693
354.800 1.505755
354.900 1.500564
355.000 1.495374
355.100 1.497179
355.200 1.501918
355.300 1.502144
355.400 1.491763
355.500 1.485218
355.600 1.486121
355.700 1.493342
355.800 1.495374
355.900 1.489054
356.000 1.481381
356.100 1.485895
356.200 1.491537
356.300 1.488152
356.400 1.476642
356.500 1.468517
356.600 1.468292
356.700 1.465809
356.800 1.471000
356.900 1.466035
357.000 1.450237
357.100 1.417513
357.200 1.400361
357.300 1.398556
357.400 1.399458
357.500 1.403521
357.600 1.412548
357.700 1.413225
357.800 1.409614
357.900 1.405100
358.000 1.406229
358.100 1.407583
358.200 1.402844
358.300 1.400361
358.400 1.400587
358.500 1.395170
358.600 1.386594
358.700 1.381178
358.800 1.376213
358.900 1.381855
359.000 1.392914
359.100 1.395847
359.200 1.393139
359.300 1.394945
359.400 1.397202
359.500 1.400587
359.600 1.402167
359.700 1.406003
359.800 1.412322
359.900 1.416836
360.000 1.421350
360.100 1.416836
360.200 1.416610
360.300 1.410065
360.400 1.404198
360.500 1.403295
360.600 1.405777
360.700 1.407583
360.800 1.412097
360.900 1.418190
361.000 1.420673
361.100 1.414353
361.200 1.411420
361.300 1.407809
361.400 1.405552
361.500 1.406003
361.600 1.411420
361.700 1.417513
361.800 1.422929
361.900 1.426315
362.000 1.420673
362.100 1.419995
362.200 1.433536
362.300 1.439404
362.400 1.435116
362.500 1.437373
362.600 1.445498
362.700 1.454525
362.800 1.453171
362.900 1.441661
363.000 1.432408
363.100 1.426540
363.200 1.426089
363.300 1.434213
363.400 1.449786
363.500 1.447980
363.600 1.419995
363.700 1.405777
363.800 1.408260
363.900 1.413451
364.000 1.415256
364.100 1.415482
364.200 1.414353
364.300 1.407583
364.400 1.399233
364.500 1.399007
364.600 1.394719
364.700 1.395622
364.800 1.398556
364.900 1.398104
365.000 1.398330
365.100 1.397427
365.200 1.398781
365.300 1.400361
365.400 1.401264
365.500 1.402392
365.600 1.406906
365.700 1.405100
365.800 1.403295
365.900 1.400361
366.000 1.390882
366.100 1.388400
366.200 1.385015
366.300 1.389980
366.400 1.393365
366.500 1.391108
366.600 1.389077
366.700 1.382984
366.800 1.380050
366.900 1.383886
367.000 1.388851
367.100 1.389303
367.200 1.390205
367.300 1.385240
367.400 1.379824
367.500 1.369668
367.600 1.364252
367.700 1.361318
367.800 1.358835
367.900 1.361544
368.000 1.365380
368.100 1.372376
368.200 1.369894
368.300 1.366283
368.400 1.366057
368.500 1.360415
368.600 1.350260
368.700 1.348905
368.800 1.367186
368.900 1.392462
369.000 1.391785
369.100 1.368088
369.200 1.369443
369.300 1.389303
369.400 1.410517
369.500 1.407809
369.600 1.373505
369.700 1.355902
369.800 1.361092
369.900 1.404198
370.000 1.452719
370.100 1.458136
370.200 1.416385
370.300 1.336267
370.400 1.296096
370.500 1.294742
370.600 1.349808
370.700 1.405777
370.800 1.451591
370.900 1.430603
371.000 1.369668
371.100 1.306703
371.200 1.271045
371.300 1.293387
371.400 1.359513
371.500 1.463552
371.600 1.525615
371.700 1.560370
371.800 1.549537
371.900 1.480478
372.000 1.357030
372.100 1.281878
372.200 1.236515
372.300 1.271722
372.400 1.358610
372.500 1.471225
372.600 1.531708
372.700 1.595577
372.800 1.621756
372.900 1.627849
373.000 1.604153
373.100 1.531934
373.200 1.406680
373.300 1.302189
373.400 1.210336
373.500 1.194313
373.600 1.250733
373.700 1.371248
373.800 1.475739
373.900 1.603024
374.000 1.672309
374.100 1.721056
374.200 1.733920
374.300 1.721733
374.400 1.692846
374.500 1.646130
374.600 1.566464
374.700 1.462424
374.800 1.350260
374.900 1.219138
375.000 1.173776
375.100 1.194087
375.200 1.285714
375.300 1.399233
375.400 1.526743
375.500 1.604378
375.600 1.679079
375.700 1.703904
375.800 1.712255
375.900 1.707741
376.000 1.700068
376.100 1.699165
376.200 1.721959
376.300 1.720831
376.400 1.698488
376.500 1.646807
376.600 1.574137
376.700 1.497179
376.800 1.376664
376.900 1.253893
377.000 1.160009
377.100 1.124803
377.200 1.193861
377.300 1.319792
377.400 1.429023
377.500 1.535996
377.600 1.619048
377.700 1.686075
377.800 1.753555
377.900 1.794177
378.000 1.835929
378.100 1.857820
378.200 1.874520
378.300 1.875875
378.400 1.876100
378.500 1.877906
378.600 1.869555
378.700 1.852855
378.800 1.835026
378.900 1.810652
379.000 1.775671
379.100 1.735726
379.200 1.675017
379.300 1.607312
379.400 1.520650
379.500 1.390882
379.600 1.270368
379.700 1.146919
379.800 1.089596
379.900 1.126834
380.000 1.249154
380.100 1.374859
380.200 1.510269
380.300 1.595125
380.400 1.672534
380.500 1.731212
380.600 1.766193
380.700 1.804333
380.800 1.834800
380.900 1.870007
381.000 1.897991
381.100 1.914241
381.200 1.907244
381.300 1.891221
381.400 1.876777
381.500 1.877229
381.600 1.877454
381.700 1.875197
381.800 1.862334
381.900 1.836380
382.000 1.816069
382.100 1.811104
382.200 1.829610
382.300 1.833446
382.400 1.815843
382.500 1.788310
382.600 1.750621
382.700 1.724441
382.800 1.684270
382.900 1.629655
383.000 1.570752
383.100 1.484315
383.200 1.392914
383.300 1.268111
383.400 1.124125
383.500 1.058452
383.600 1.050553
383.700 1.126157
383.800 1.241706
383.900 1.365832
384.000 1.464681
384.100 1.568720
384.200 1.635974
384.300 1.708644
384.400 1.754457
384.500 1.796209
384.600 1.826901
384.700 1.846536
384.800 1.861431
384.900 1.869330
385.000 1.877680
385.100 1.895283
385.200 1.906793
385.300 1.908599
385.400 1.902279
385.500 1.894155
385.600 1.886482
385.700 1.889415
385.800 1.904536
385.900 1.919657
386.000 1.928459
386.100 1.927556
386.200 1.909276
386.300 1.874520
386.400 1.870007
386.500 1.874295
386.600 1.880388
386.700 1.890770
386.800 1.898217
386.900 1.898443
387.000 1.888738
387.100 1.872941
387.200 1.850598
387.300 1.839540
387.400 1.840894
387.500 1.845407
387.600 1.836154
387.700 1.812683
387.800 1.791018
387.900 1.767095
388.000 1.747461
388.100 1.713834
388.200 1.660573
388.300 1.609343
388.400 1.539156
388.500 1.449786
388.600 1.338298
388.700 1.189122
388.800 1.075829
388.900 1.019409
389.000 1.058226
389.100 1.171745
389.200 1.317761
389.300 1.424735
389.400 1.522681
389.500 1.585872
389.600 1.646807
389.700 1.699616
389.800 1.731212
389.900 1.755586
390.000 1.772286
390.100 1.801625
390.200 1.832995
390.300 1.852855
390.400 1.860302
390.500 1.860077
390.600 1.860979
390.700 1.874069
390.800 1.900925
390.900 1.927556
391.000 1.936583
391.100 1.940871
391.200 1.934326
391.300 1.919206
391.400 1.906116
391.500 1.907696
391.600 1.918529
391.700 1.924171
391.800 1.922591
391.900 1.913338
392.000 1.912661
392.100 1.914692
392.200 1.910404
392.300 1.900248
392.400 1.895509
392.500 1.901377
392.600 1.896412
392.700 1.891898
392.800 1.874746
392.900 1.855789
393.000 1.835252
393.100 1.788761
393.200 1.689235
393.300 1.566915
393.400 1.553600
393.500 1.631009
393.600 1.731889
393.700 1.798014
393.800 1.842699
393.900 1.868653
394.000 1.890318
394.100 1.905439
394.200 1.908373
394.300 1.898217
394.400 1.885128
394.500 1.868653
394.600 1.860979
394.700 1.863236
394.800 1.863913
394.900 1.858497
395.000 1.849921
395.100 1.838637
395.200 1.829158
395.300 1.827578
395.400 1.825547
395.500 1.813360
395.600 1.794403
395.700 1.773189
395.800 1.760551
395.900 1.743850
396.000 1.714060
396.100 1.678402
396.200 1.627849
396.300 1.582713
396.400 1.516136
396.500 1.433988
396.600 1.324306
396.700 1.151433
396.800 0.992327
396.900 0.886707
397.000 0.868878
397.100 0.940871
397.200 1.073347
397.300 1.202212
397.400 1.333333
397.500 1.428346
397.600 1.509592
397.700 1.573911
397.800 1.610020
397.900 1.656737
398.000 1.685398
398.100 1.713609
398.200 1.733017
398.300 1.746784
398.400 1.767095
398.500 1.784924
398.600 1.792823
398.700 1.789212
398.800 1.812232
398.900 1.821936
399.000 1.830512
399.100 1.838186
399.200 1.841796
399.300 1.847664
399.400 1.850147
399.500 1.853532
399.600 1.847439
399.700 1.843602
399.800 1.842473
399.900 1.845859
400.000 1.838186
400.100 1.829384
400.200 1.827578
400.300 1.823968
400.400 1.824419
400.500 1.825322
400.600 1.828030
400.700 1.829835
400.800 1.833446
400.900 1.831866
401.000 1.830512
401.100 1.833220
401.200 1.839088
401.300 1.842925
401.400 1.843828
401.500 1.846987
401.600 1.854660
401.700 1.865042
401.800 1.874295
401.900 1.878583
402.000 1.877229
402.100 1.870458
402.200 1.858046
402.300 1.832543
402.400 1.799594
402.500 1.772060
402.600 1.766193
402.700 1.784699
402.800 1.809975
402.900 1.830512
403.000 1.845182
403.100 1.849244
403.200 1.853306
403.300 1.854660
403.400 1.858271
403.500 1.866622
403.600 1.872489
403.700 1.876100
403.800 1.877906
403.900 1.875197
404.000 1.876326
404.100 1.876777
404.200 1.871135
404.300 1.864139
404.400 1.851501
404.500 1.837508
404.600 1.830738
404.700 1.839088
404.800 1.850598
404.900 1.859851
405.000 1.861882
405.100 1.860754
405.200 1.857820
405.300 1.848567
405.400 1.844505
405.500 1.849921
405.600 1.853081
405.700 1.856014
405.800 1.856466
405.900 1.858723
406.000 1.858046
406.100 1.846536
406.200 1.833898
406.300 1.823516
406.400 1.803882
406.500 1.763033
406.600 1.761679
406.700 1.771158
406.800 1.772512
406.900 1.771609
407.000 1.763710
407.100 1.751298
407.200 1.744979
407.300 1.741819
407.400 1.745430
407.500 1.744302
407.600 1.731212
407.700 1.720153
407.800 1.714511
407.900 1.722862
408.000 1.735049
408.100 1.740014
408.200 1.737305
408.300 1.728729
408.400 1.716543
408.500 1.704581
408.600 1.693297
408.700 1.690363
408.800 1.684270
408.900 1.678402
409.000 1.660348
409.100 1.641165
409.200 1.618371
409.300 1.580907
409.400 1.545249
409.500 1.490634
409.600 1.434665
409.700 1.369668
409.800 1.277815
409.900 1.177161
410.000 1.052810
410.100 0.952832
410.200 0.924848
410.300 0.983525
410.400 1.099752
410.500 1.231099
410.600 1.320469
410.700 1.393591
410.800 1.449560
410.900 1.488377
411.000 1.527195
411.100 1.556082
411.200 1.588129
411.300 1.611826
411.400 1.635297
411.500 1.656737
411.600 1.672760
411.700 1.677048
411.800 1.672083
411.900 1.670729
412.000 1.671632
412.100 1.675017
412.200 1.678628
412.300 1.685850
412.400 1.698037
412.500 1.709998
412.600 1.702776
412.700 1.686301
412.800 1.672309
412.900 1.665313
413.000 1.665764
413.100 1.673437
413.200 1.682464
413.300 1.694200
413.400 1.711578
413.500 1.720605
413.600 1.727150
413.700 1.731663
413.800 1.739788
413.900 1.745204
414.000 1.744753
414.100 1.737305
414.200 1.723087
414.300 1.708418
414.400 1.700519
414.500 1.707515
414.600 1.720153
414.700 1.728729
414.800 1.729632
