# Wavelength (nm)   F_lamA (normalized erg/cm2/s/A)9.100 0.000052
9.400 0.000073
9.600 0.000091
9.800 0.000112
10.000 0.000136
10.200 0.000165
10.400 0.000197
10.600 0.000234
10.800 0.000275
11.000 0.000322
11.400 0.000431
11.800 0.000564
12.100 0.000680
12.500 0.000857
12.700 0.000956
12.800 0.001007
13.100 0.001173
13.200 0.001232
13.400 0.001354
13.700 0.001550
14.000 0.001762
14.300 0.001988
14.700 0.002312
15.100 0.002659
15.500 0.003030
15.900 0.003420
16.200 0.003725
16.600 0.004146
17.000 0.004582
17.300 0.004918
17.700 0.005374
18.000 0.005722
18.200 0.005956
18.600 0.006427
19.100 0.007023
19.400 0.007380
19.800 0.007854
20.200 0.008333
20.500 0.008684
21.000 0.009262
21.600 0.009945
22.000 0.010387
22.300 0.010713
22.700 0.011144
23.000 0.074723
23.400 0.073432
24.000 0.071710
24.600 0.070172
25.200 0.068696
25.700 0.066421
26.000 0.066298
26.400 0.065867
26.900 0.064391
27.400 0.062854
27.900 0.061039
28.400 0.059908
29.000 0.058118
29.600 0.055947
30.100 0.053106
30.800 0.051857
31.800 0.050166
32.800 0.047700
33.800 0.045228
34.800 0.042909
35.700 0.041162
36.600 0.039557
37.500 0.037780
38.500 0.035683
39.500 0.034213
40.500 0.032700
41.400 0.031310
42.200 0.030055
43.000 0.028881
44.100 0.027546
45.100 0.026304
46.000 0.025148
47.000 0.024016
48.000 0.023007
49.000 0.021907
50.000 0.021052
50.600 0.020732
51.200 0.021076
52.000 0.020326
53.000 0.019459
54.000 0.018456
55.000 0.017718
56.000 0.017312
57.000 0.016679
58.000 0.015972
59.000 0.015424
60.000 0.014766
61.000 0.014170
62.000 0.013825
63.000 0.013296
64.000 0.012866
65.000 0.012386
65.800 0.011986
66.500 0.011771
67.500 0.011402
68.500 0.010923
69.500 0.010652
70.500 0.010191
71.600 0.009957
72.600 0.009649
73.500 0.009385
74.500 0.009065
75.500 0.008782
76.500 0.008469
77.500 0.008253
78.500 0.008001
79.500 0.007774
80.500 0.007558
81.500 0.007355
82.500 0.007153
83.500 0.006851
84.500 0.006753
85.500 0.006562
86.500 0.006402
87.500 0.006236
88.500 0.006071
89.500 0.005911
90.500 0.005739
91.500 0.006863
92.500 0.009244
93.500 0.011371
94.500 0.014250
95.500 0.015277
96.500 0.016740
97.500 0.011378
98.500 0.016538
99.500 0.015996
100.500 0.016513
101.500 0.015510
102.500 0.011046
103.500 0.014299
104.500 0.016064
105.500 0.017060
106.500 0.018727
107.500 0.022472
108.500 0.024047
109.500 0.025117
110.500 0.042208
111.500 0.047325
112.500 0.045572
113.500 0.045117
114.500 0.035695
115.500 0.026876
116.500 0.020246
117.500 0.014010
118.500 0.012700
119.500 0.011507
120.500 0.010412
121.500 0.007442
122.500 0.010277
123.500 0.011138
124.500 0.011710
125.500 0.013905
126.500 0.018426
127.500 0.030584
128.500 0.050670
129.500 0.070972
130.500 0.085916
131.500 0.116544
132.500 0.142066
133.500 0.160578
134.500 0.189114
135.500 0.192435
136.500 0.207749
137.500 0.227060
138.500 0.238130
139.500 0.255781
140.500 0.259348
141.500 0.271956
142.500 0.276138
143.500 0.267405
144.200 0.296925
144.700 0.295141
145.500 0.314084
146.500 0.295818
147.500 0.307134
148.500 0.314145
149.500 0.322263
150.500 0.336285
151.200 0.332780
151.700 0.331673
152.500 0.330627
153.500 0.328413
154.500 0.342866
155.500 0.341144
156.500 0.317405
157.500 0.351046
158.500 0.365006
159.500 0.383026
160.500 0.356642
161.500 0.371648
162.500 0.352337
163.500 0.369803
164.500 0.398462
165.500 0.341759
166.500 0.411562
167.200 0.365560
167.700 0.400369
168.500 0.423739
169.500 0.401784
170.500 0.403444
171.500 0.422202
172.500 0.416359
173.500 0.433764
174.500 0.423985
175.500 0.440775
176.500 0.405966
177.500 0.432841
178.500 0.431242
179.500 0.450369
180.500 0.453629
181.500 0.449877
182.500 0.436224
183.500 0.441082
184.500 0.415498
185.500 0.431119
186.500 0.439545
187.500 0.441882
188.500 0.442681
189.500 0.445818
190.500 0.435301
191.500 0.443358
192.500 0.447724
193.500 0.428782
194.500 0.455228
195.500 0.454367
196.700 0.462116
197.600 0.450369
198.400 0.448524
199.500 0.446125
200.500 0.434256
201.500 0.432780
202.500 0.420726
203.500 0.443112
204.500 0.451845
205.500 0.441144
206.500 0.438868
207.400 0.457196
207.800 0.462485
208.500 0.460517
209.500 0.450062
210.500 0.445018
211.500 0.450923
212.500 0.449262
213.500 0.425215
214.500 0.450923
215.500 0.446863
216.500 0.429828
217.500 0.430381
218.500 0.439914
219.500 0.460947
220.500 0.446187
221.500 0.423063
222.500 0.430443
223.500 0.463961
224.500 0.443173
225.500 0.424969
226.500 0.416544
227.500 0.439545
228.500 0.450677
229.500 0.430074
230.500 0.444219
231.500 0.440221
232.500 0.398831
233.500 0.424170
234.500 0.386777
235.500 0.437146
236.500 0.395695
237.500 0.421095
238.500 0.370849
239.500 0.402153
240.500 0.394957
241.500 0.402645
242.500 0.439729
243.500 0.428044
244.500 0.446925
245.500 0.442927
246.500 0.439360
247.500 0.420049
248.500 0.413776
249.500 0.411562
250.500 0.456089
251.300 0.409779
251.800 0.389975
252.500 0.379213
253.500 0.393542
254.500 0.399139
255.500 0.434256
256.500 0.426753
257.500 0.451169
258.500 0.448524
259.500 0.441820
260.500 0.424170
261.500 0.412669
262.500 0.441697
263.500 0.466052
264.500 0.519373
265.500 0.534317
266.500 0.497417
267.500 0.517528
268.500 0.529274
269.500 0.494834
270.500 0.507995
271.500 0.474723
272.500 0.476138
273.500 0.498278
274.500 0.429520
275.500 0.454367
276.500 0.488622
277.500 0.510209
278.500 0.476076
279.500 0.326507
280.500 0.365929
281.500 0.518942
282.500 0.539606
283.500 0.529828
284.500 0.511501
285.500 0.457872
286.500 0.529582
287.500 0.535363
288.500 0.537761
289.500 0.541328
291.000 0.580012
293.000 0.566544
295.000 0.561439
297.000 0.568266
299.000 0.574170
301.000 0.582103
303.000 0.584994
305.000 0.594526
307.000 0.586777
309.000 0.587515
311.000 0.589791
313.000 0.585117
315.000 0.583026
317.000 0.596433
319.000 0.574600
321.000 0.596064
323.000 0.578782
325.000 0.613038
327.000 0.638376
329.000 0.638376
331.000 0.639606
332.200 0.517589
332.300 0.497540
332.400 0.499139
332.500 0.519496
332.600 0.517835
332.700 0.501599
332.800 0.502337
332.900 0.513284
333.000 0.538745
333.100 0.547970
333.200 0.536900
333.300 0.533825
333.400 0.518881
333.500 0.515929
333.600 0.509102
333.700 0.505720
333.800 0.517282
333.900 0.523124
334.000 0.521279
334.100 0.522017
334.200 0.515006
334.300 0.526076
334.400 0.543850
334.500 0.544772
334.600 0.541021
334.700 0.519188
334.800 0.489668
334.900 0.468450
335.000 0.479151
335.100 0.496986
335.200 0.505474
335.300 0.514637
335.400 0.528167
335.500 0.539114
335.600 0.528167
335.700 0.502214
335.800 0.459041
335.900 0.426445
336.000 0.403075
336.100 0.421341
336.200 0.450000
336.300 0.488376
336.400 0.511439
336.500 0.504490
336.600 0.494649
336.700 0.490713
336.800 0.483702
336.900 0.477798
337.000 0.456765
337.100 0.440344
337.200 0.432657
337.300 0.451415
337.400 0.473186
337.500 0.503690
337.600 0.516482
337.700 0.519803
337.800 0.506950
337.900 0.497109
338.000 0.498462
338.100 0.504982
338.200 0.508549
338.300 0.510271
338.400 0.509963
338.500 0.518635
338.600 0.513469
338.700 0.500123
338.800 0.492251
338.900 0.500431
339.000 0.514207
339.100 0.528844
339.200 0.525092
339.300 0.516913
339.400 0.517036
339.500 0.527122
339.600 0.541943
339.700 0.553998
339.800 0.565990
339.900 0.564637
340.000 0.556396
340.100 0.544465
340.200 0.520972
340.300 0.513838
340.400 0.505535
340.500 0.515744
340.600 0.518696
340.700 0.516851
340.800 0.512116
340.900 0.505597
341.000 0.517405
341.100 0.517774
341.200 0.513100
341.300 0.503198
341.400 0.497847
341.500 0.512177
341.600 0.523678
341.700 0.531242
341.800 0.542681
341.900 0.551107
342.000 0.561501
342.100 0.562915
342.200 0.544772
342.300 0.523186
342.400 0.514945
342.500 0.523493
342.600 0.530996
342.700 0.543358
342.800 0.559041
342.900 0.574600
343.000 0.584133
343.100 0.563038
343.200 0.541513
343.300 0.530197
343.400 0.546064
343.500 0.568635
343.600 0.575461
343.700 0.564391
343.800 0.547478
343.900 0.532165
344.000 0.519926
344.100 0.500554
344.200 0.488930
344.300 0.486101
344.400 0.495141
344.500 0.514330
344.600 0.539483
344.700 0.565129
344.800 0.580381
344.900 0.589422
345.000 0.571525
345.100 0.545510
345.200 0.529336
345.300 0.527306
345.400 0.535855
345.500 0.545018
345.600 0.546802
345.700 0.545818
345.800 0.537269
345.900 0.529397
346.000 0.518020
346.100 0.514022
346.200 0.526322
346.300 0.536962
346.400 0.546863
346.500 0.536900
346.600 0.534440
346.700 0.543419
346.800 0.558918
346.900 0.571648
347.000 0.579213
347.100 0.578536
347.200 0.571894
347.300 0.548278
347.400 0.525215
347.500 0.517036
347.600 0.519127
347.700 0.540652
347.800 0.556458
347.900 0.568020
348.000 0.581119
348.100 0.582657
348.200 0.576322
348.300 0.569742
348.400 0.564145
348.500 0.570049
348.600 0.582657
348.700 0.582657
348.800 0.575277
348.900 0.561439
349.000 0.549938
349.100 0.551722
349.200 0.564760
349.300 0.568881
349.400 0.564022
349.500 0.553567
349.600 0.538991
349.700 0.544649
349.800 0.548831
349.900 0.555535
350.000 0.553998
350.100 0.546248
350.200 0.551538
350.300 0.557565
350.400 0.562239
350.500 0.558180
350.600 0.546925
350.700 0.538315
350.800 0.532903
350.900 0.541882
351.000 0.547663
351.100 0.547109
351.200 0.538130
351.300 0.527860
351.400 0.527245
351.500 0.536039
351.600 0.562608
351.700 0.583272
351.800 0.591513
351.900 0.575277
352.000 0.557872
352.100 0.550185
352.200 0.545080
352.300 0.537454
352.400 0.524231
352.500 0.515191
352.600 0.523862
352.700 0.537085
352.800 0.552522
352.900 0.566851
353.000 0.577429
353.100 0.585055
353.200 0.577675
353.300 0.552768
353.400 0.538561
353.500 0.534194
353.600 0.556396
353.700 0.581550
353.800 0.593235
353.900 0.603321
354.000 0.602153
354.100 0.597724
354.200 0.594157
354.300 0.603444
354.400 0.611747
354.500 0.607811
354.600 0.603260
354.700 0.597724
354.800 0.594895
354.900 0.594403
355.000 0.600431
355.100 0.610271
355.200 0.608364
355.300 0.592558
355.400 0.578598
355.500 0.580012
355.600 0.589053
355.700 0.604121
355.800 0.612177
355.900 0.616236
356.000 0.616236
356.100 0.615621
356.200 0.611685
356.300 0.600246
356.400 0.580381
356.500 0.559902
356.600 0.547847
356.700 0.549569
356.800 0.555166
356.900 0.556089
357.000 0.546187
357.100 0.532595
357.200 0.529151
357.300 0.529828
357.400 0.534502
357.500 0.545264
357.600 0.557811
357.700 0.565498
357.800 0.569865
357.900 0.565191
358.000 0.553075
358.100 0.538315
358.200 0.526630
358.300 0.530381
358.400 0.533026
358.500 0.521464
358.600 0.503014
358.700 0.494342
358.800 0.503690
358.900 0.528290
359.000 0.548647
359.100 0.562239
359.200 0.565929
359.300 0.563653
359.400 0.565191
359.500 0.576199
359.600 0.589299
359.700 0.597232
359.800 0.598339
359.900 0.598893
360.000 0.597171
360.100 0.581980
360.200 0.569926
360.300 0.560332
360.400 0.565560
360.500 0.575584
360.600 0.575707
360.700 0.571894
360.800 0.564022
360.900 0.560947
361.000 0.559840
361.100 0.562177
361.200 0.568327
361.300 0.574539
361.400 0.583825
361.500 0.604613
361.600 0.606765
361.700 0.595387
361.800 0.575400
361.900 0.559533
362.000 0.567958
362.100 0.582718
362.200 0.595572
362.300 0.601107
362.400 0.605412
362.500 0.619926
362.600 0.639606
362.700 0.657442
362.800 0.651292
362.900 0.630381
363.000 0.594219
363.100 0.572386
363.200 0.571956
363.300 0.590037
363.400 0.607073
363.500 0.607442
363.600 0.605474
363.700 0.611624
363.800 0.622386
363.900 0.630996
364.000 0.633456
364.100 0.627921
364.200 0.615621
364.300 0.604490
364.400 0.599815
364.500 0.597109
364.600 0.592189
364.700 0.590898
364.800 0.592681
364.900 0.592128
365.000 0.593173
365.100 0.596679
365.200 0.610640
365.300 0.623001
365.400 0.634071
365.500 0.645141
365.600 0.653137
365.700 0.656212
365.800 0.654982
365.900 0.650677
366.000 0.645141
366.100 0.636531
366.200 0.628536
366.300 0.625461
366.400 0.629151
366.500 0.634071
366.600 0.637146
366.700 0.637146
366.800 0.632226
366.900 0.626076
367.000 0.622386
367.100 0.624846
367.200 0.635301
367.300 0.642681
367.400 0.641451
367.500 0.635301
367.600 0.622386
367.700 0.609471
367.800 0.598770
367.900 0.599631
368.000 0.606950
368.100 0.609225
368.200 0.611255
368.300 0.609410
368.400 0.609348
368.500 0.604674
368.600 0.599077
368.700 0.594711
368.800 0.610148
368.900 0.632841
369.000 0.642681
369.100 0.643911
369.200 0.637761
369.300 0.643296
369.400 0.653752
369.500 0.656212
369.600 0.647601
369.700 0.628536
369.800 0.638991
369.900 0.666052
370.000 0.701722
370.100 0.705412
370.200 0.666667
370.300 0.616236
370.400 0.573493
370.500 0.568143
370.600 0.583456
370.700 0.618081
370.800 0.638376
370.900 0.637761
371.000 0.612792
371.100 0.588868
371.200 0.580566
371.300 0.603567
371.400 0.658672
371.500 0.703567
371.600 0.731857
371.700 0.741082
371.800 0.723247
371.900 0.669742
372.000 0.594588
372.100 0.530504
372.200 0.519742
372.300 0.550615
372.400 0.628536
372.500 0.683887
372.600 0.723247
372.700 0.739852
372.800 0.746002
372.900 0.747847
373.000 0.743542
373.100 0.713407
373.200 0.640836
373.300 0.564453
373.400 0.502337
373.500 0.482841
373.600 0.519557
373.700 0.583456
373.800 0.653752
373.900 0.726322
374.000 0.771218
374.100 0.796433
374.200 0.787208
374.300 0.769988
374.400 0.742927
374.500 0.715252
374.600 0.678352
374.700 0.635916
374.800 0.578167
374.900 0.529766
375.000 0.499323
375.100 0.529766
375.200 0.590590
375.300 0.680812
375.400 0.737392
375.500 0.778598
375.600 0.797048
375.700 0.792128
375.800 0.779828
375.900 0.769988
376.000 0.768758
376.100 0.787208
376.200 0.800123
376.300 0.798278
376.400 0.790283
376.500 0.765068
376.600 0.742312
376.700 0.706027
376.800 0.645756
376.900 0.596556
377.000 0.542804
377.100 0.544034
377.200 0.584871
377.300 0.653137
377.400 0.705412
377.500 0.749077
377.600 0.769988
377.700 0.801353
377.800 0.840098
377.900 0.873309
378.000 0.912669
378.100 0.930504
378.200 0.937269
378.300 0.932964
378.400 0.924969
378.500 0.912669
378.600 0.900984
378.700 0.878844
378.800 0.862239
378.900 0.849938
379.000 0.840713
379.100 0.830258
379.200 0.802583
379.300 0.772448
379.400 0.723247
379.500 0.664822
379.600 0.604059
379.700 0.539852
379.800 0.513838
379.900 0.534748
380.000 0.605966
380.100 0.691267
380.200 0.767528
380.300 0.805658
380.400 0.843173
380.500 0.855474
380.600 0.867774
380.700 0.885609
380.800 0.907134
380.900 0.937269
381.000 0.959410
381.100 0.971095
381.200 0.955105
381.300 0.935424
381.400 0.917589
381.500 0.916359
381.600 0.925584
381.700 0.942189
381.800 0.951415
381.900 0.929274
382.000 0.907134
382.100 0.892989
382.200 0.897909
382.300 0.899754
382.400 0.873309
382.500 0.843173
382.600 0.815498
382.700 0.797663
382.800 0.771833
382.900 0.750308
383.000 0.726322
383.100 0.686347
383.200 0.645756
383.300 0.571341
383.400 0.517220
383.500 0.482964
383.600 0.487392
383.700 0.517774
383.800 0.578967
383.900 0.627921
384.000 0.682042
384.100 0.734932
384.200 0.781058
384.300 0.835793
384.400 0.870234
384.500 0.898524
384.600 0.922509
384.700 0.945264
384.800 0.962485
384.900 0.964945
385.000 0.965560
385.100 0.979090
385.200 1.004920
385.300 1.030135
385.400 1.036285
385.500 1.028905
385.600 1.014760
385.700 1.003690
385.800 0.992005
385.900 0.989545
386.000 1.000000
386.100 1.017835
386.200 1.029520
386.300 1.038745
386.400 1.038130
386.500 1.033210
386.600 1.033210
386.700 1.036285
386.800 1.039975
386.900 1.034440
387.000 1.014145
387.100 0.993235
387.200 0.963715
387.300 0.948339
387.400 0.940344
387.500 0.946494
387.600 0.945264
387.700 0.920049
387.800 0.894834
387.900 0.869619
388.000 0.868389
388.100 0.864699
388.200 0.840713
388.300 0.815498
388.400 0.773063
388.500 0.730627
388.600 0.669127
388.700 0.594280
388.800 0.542312
388.900 0.523924
389.000 0.551230
389.100 0.620541
389.200 0.686347
389.300 0.732472
389.400 0.766913
389.500 0.789053
389.600 0.826568
389.700 0.854244
389.800 0.880689
389.900 0.895449
390.000 0.905904
390.100 0.930504
390.200 0.944649
390.300 0.959410
390.400 0.958180
390.500 0.960025
390.600 0.971710
390.700 0.992005
390.800 1.026445
390.900 1.055966
391.000 1.071956
391.100 1.073801
391.200 1.072571
391.300 1.065191
391.400 1.052891
391.500 1.052276
391.600 1.060886
391.700 1.063346
391.800 1.057811
391.900 1.049200
392.000 1.049200
392.100 1.050431
392.200 1.053506
392.300 1.058426
392.400 1.057196
392.500 1.052276
392.600 1.027675
392.700 0.996310
392.800 0.955720
392.900 0.907749
393.000 0.857319
393.100 0.765683
393.200 0.653137
393.300 0.557134
393.400 0.529151
393.500 0.605351
393.600 0.717712
393.700 0.827798
393.800 0.916359
393.900 0.966175
394.000 0.995080
394.100 1.015990
394.200 1.023370
394.300 1.024600
394.400 1.028905
394.500 1.030750
394.600 1.039360
394.700 1.041205
394.800 1.034440
394.900 1.023985
395.000 1.017835
395.100 1.012915
395.200 1.003075
395.300 1.005535
395.400 1.002460
395.500 0.996310
395.600 0.982780
395.700 0.960640
395.800 0.952030
395.900 0.938499
396.000 0.911439
396.100 0.877614
396.200 0.827183
396.300 0.784133
396.400 0.736777
396.500 0.663592
396.600 0.571894
396.700 0.449016
396.800 0.360148
396.900 0.308733
397.000 0.341082
397.100 0.421218
397.200 0.528290
397.300 0.618081
397.400 0.701107
397.500 0.756458
397.600 0.813653
397.700 0.854859
397.800 0.890529
397.900 0.925584
398.000 0.941574
398.100 0.956335
398.200 0.968020
398.300 0.983395
398.400 1.001845
398.500 1.022140
398.600 1.038130
398.700 1.051661
398.800 1.072571
398.900 1.078106
399.000 1.081181
399.100 1.087946
399.200 1.095326
399.300 1.112546
399.400 1.118696
399.500 1.115621
399.600 1.099631
399.700 1.089176
399.800 1.089791
399.900 1.104551
400.000 1.117466
400.100 1.128536
400.200 1.130996
400.300 1.128536
400.400 1.119311
400.500 1.108856
400.600 1.108856
400.700 1.118696
400.800 1.140836
400.900 1.154982
401.000 1.161132
401.100 1.159902
401.200 1.154367
401.300 1.150677
401.400 1.150677
401.500 1.157442
401.600 1.163592
401.700 1.169742
401.800 1.176507
401.900 1.180812
402.000 1.183887
402.100 1.181427
402.200 1.175277
402.300 1.169742
402.400 1.166052
402.500 1.169127
402.600 1.175277
402.700 1.186962
402.800 1.188807
402.900 1.180812
403.000 1.161132
403.100 1.146986
403.200 1.142066
403.300 1.145141
403.400 1.153137
403.500 1.169127
403.600 1.185117
403.700 1.204797
403.800 1.209717
403.900 1.203567
404.000 1.194957
404.100 1.187577
404.200 1.186347
404.300 1.178352
404.400 1.153752
404.500 1.129151
404.600 1.115621
404.700 1.134686
404.800 1.163592
404.900 1.186347
405.000 1.190652
405.100 1.189422
405.200 1.185117
405.300 1.178967
405.400 1.171587
405.500 1.167282
405.600 1.165437
405.700 1.166052
405.800 1.168512
405.900 1.181427
406.000 1.188192
406.100 1.185117
406.200 1.161132
406.300 1.135916
406.400 1.118696
406.500 1.112546
406.600 1.119926
406.700 1.126691
406.800 1.127306
406.900 1.124846
407.000 1.116236
407.100 1.095326
407.200 1.083641
407.300 1.086716
407.400 1.095941
407.500 1.098401
407.600 1.076261
407.700 1.055351
407.800 1.043050
407.900 1.054121
408.000 1.075031
408.100 1.087946
408.200 1.087331
408.300 1.076876
408.400 1.065806
408.500 1.051661
408.600 1.047970
408.700 1.046740
408.800 1.047355
408.900 1.046125
409.000 1.031980
409.100 1.019680
409.200 1.004305
409.300 0.978475
409.400 0.959410
409.500 0.929274
409.600 0.902829
409.700 0.864699
409.800 0.818573
409.900 0.766298
410.000 0.680197
410.100 0.622386
410.200 0.597109
410.300 0.645141
410.400 0.722017
410.500 0.803813
410.600 0.847478
410.700 0.886224
410.800 0.907134
410.900 0.928659
411.000 0.950185
411.100 0.966175
411.200 0.991390
411.300 1.010455
411.400 1.032595
411.500 1.050431
411.600 1.059041
411.700 1.062116
411.800 1.059041
411.900 1.057811
412.000 1.061501
412.100 1.071956
412.200 1.083641
412.300 1.091636
412.400 1.100861
412.500 1.108241
412.600 1.111931
412.700 1.113161
412.800 1.113776
412.900 1.115006
413.000 1.111316
413.100 1.104551
413.200 1.096556
413.300 1.098401
413.400 1.112546
413.500 1.126691
413.600 1.140221
413.700 1.152522
413.800 1.161132
413.900 1.171587
414.000 1.169742
414.100 1.158672
414.200 1.141451
414.300 1.125461
414.400 1.123001
414.500 1.128536
414.600 1.146371
414.700 1.153752
414.800 1.154982
414.900 1.155597
415.000 1.156212
415.100 1.158672
415.200 1.154982
415.300 1.146986
415.400 1.140221
415.500 1.138991
