# Wavelength (nm)   F_lamA (normalized erg/cm2/s/A)9.100 0.000170
9.400 0.000189
9.600 0.000202
9.800 0.000215
10.000 0.000228
10.200 0.000242
10.400 0.000256
10.600 0.000271
10.800 0.000287
11.000 0.000305
11.400 0.000346
11.800 0.000401
12.100 0.000457
12.500 0.000559
12.700 0.000627
12.800 0.000666
13.100 0.000807
13.200 0.000863
13.400 0.000992
13.700 0.001233
14.000 0.001544
14.300 0.001942
14.700 0.002637
15.100 0.003566
15.500 0.004790
15.900 0.006364
16.200 0.007818
16.600 0.010178
17.000 0.013098
17.300 0.015696
17.700 0.019783
18.000 0.023360
18.200 0.026007
18.600 0.031979
19.100 0.040839
19.400 0.046958
19.800 0.056084
20.200 0.066469
20.500 0.075070
21.000 0.091119
21.600 0.113252
22.000 0.129860
22.300 0.143322
22.700 0.162587
23.000 5.342657
23.400 5.884615
24.000 7.597902
24.600 10.391608
25.200 12.699301
25.700 9.825175
26.000 14.031469
26.400 17.716783
26.900 18.031469
27.400 18.311189
27.900 17.604895
28.400 18.520979
29.000 18.430070
29.600 16.940559
30.100 11.741259
30.800 14.594406
31.800 18.167832
32.800 18.213287
33.800 17.853147
34.800 17.527972
35.700 17.779720
36.600 17.986014
37.500 17.685315
38.500 16.741259
39.500 17.167832
40.500 17.192308
41.400 16.961538
42.200 16.531469
43.000 16.251748
44.100 16.272727
45.100 16.000000
46.000 15.559441
47.000 15.286713
48.000 15.146853
49.000 14.667832
50.000 14.625874
50.600 15.734266
51.200 18.636364
52.000 18.272727
53.000 17.944056
54.000 17.003497
55.000 16.797203
56.000 17.244755
57.000 17.017483
58.000 16.486014
59.000 16.409091
60.000 15.926573
61.000 15.475524
62.000 15.636364
63.000 15.300699
64.000 15.139860
65.000 14.800699
65.800 14.426573
66.500 14.451049
67.500 14.297203
68.500 13.779720
69.500 13.804196
70.500 13.272727
71.600 13.349650
72.600 13.150350
73.500 12.975524
74.500 12.695804
75.500 12.465035
76.500 12.153846
77.500 12.045455
78.500 11.832168
79.500 11.653846
80.500 11.500000
81.500 11.339161
82.500 11.188811
83.500 10.720280
84.500 10.818182
85.500 10.622378
86.500 10.513986
87.500 10.356643
88.500 10.195804
89.500 10.031469
90.500 9.811189
91.500 10.475524
92.500 18.192308
93.500 25.419580
94.500 37.202797
95.500 42.202797
96.500 49.020979
97.500 29.989510
98.500 50.769231
99.500 48.916084
100.500 50.629371
101.500 46.328671
102.500 27.493007
103.500 42.692308
104.500 48.216783
105.500 47.657343
106.500 45.069930
107.500 45.384615
108.500 42.237762
109.500 44.020979
110.500 42.482517
111.500 41.678322
112.500 39.685315
113.500 40.034965
114.500 38.601399
115.500 38.181818
116.500 37.482517
117.500 33.601399
118.500 35.314685
119.500 33.356643
120.500 30.101399
121.500 18.748252
122.500 28.849650
123.500 31.209790
124.500 31.069930
125.500 30.821678
126.500 30.125874
127.500 29.961538
128.500 29.468531
129.500 28.272727
130.500 27.793706
131.500 27.839161
132.500 27.080420
133.500 26.314685
134.500 26.251748
135.500 25.793706
136.500 25.178322
137.500 24.706294
138.500 24.325175
139.500 23.027972
140.500 22.531469
141.500 22.972028
142.500 22.482517
143.500 22.143357
144.200 21.912587
144.700 21.702797
145.500 21.360140
146.500 20.937063
147.500 20.569930
148.500 20.220280
149.500 19.835664
150.500 19.426573
151.200 19.132867
151.700 19.013986
152.500 18.695804
153.500 18.073427
154.500 17.629371
155.500 17.276224
156.500 17.223776
157.500 17.066434
158.500 16.842657
159.500 16.604895
160.500 16.101399
161.500 15.832168
162.500 15.580420
163.500 15.293706
164.500 14.772727
165.500 14.874126
166.500 14.744755
167.200 14.398601
167.700 14.493007
168.500 14.314685
169.500 14.038462
170.500 13.765734
171.500 13.458042
172.500 13.262238
173.500 13.171329
174.500 12.919580
175.500 12.762238
176.500 12.430070
177.500 12.342657
178.500 12.167832
179.500 12.013986
180.500 11.849650
181.500 11.625874
182.500 11.461538
183.500 11.286713
184.500 11.000000
185.500 10.769231
186.500 10.657343
187.500 10.594406
188.500 10.314685
189.500 10.087413
190.500 10.080420
191.500 9.835664
192.500 9.671329
193.500 9.611888
194.500 9.545455
195.500 9.279720
196.700 9.244755
197.600 9.167832
198.400 9.003497
199.500 8.790210
200.500 8.755245
201.500 8.653846
202.500 8.562937
203.500 8.409091
204.500 8.293706
205.500 7.566434
206.500 7.671329
207.400 8.017483
207.800 7.926573
208.500 7.888112
209.500 7.748252
210.500 7.688811
211.500 7.618881
212.500 7.531469
213.500 7.409091
214.500 7.311189
215.500 7.244755
216.500 7.108392
217.500 7.038462
218.500 6.930070
219.500 6.888112
220.500 6.779720
221.500 6.653846
222.500 6.583916
223.500 6.531469
224.500 6.437063
225.500 6.311189
226.500 6.265734
227.500 6.199301
228.500 6.129371
229.500 5.996503
230.500 5.937063
231.500 5.888112
232.500 5.583916
233.500 5.730769
234.500 5.629371
235.500 5.601399
236.500 5.503497
237.500 5.458042
238.500 5.321678
239.500 5.318182
240.500 5.248252
241.500 5.192308
242.500 5.150350
243.500 5.076923
244.500 5.027972
245.500 4.972028
246.500 4.905594
247.500 4.846154
248.500 4.800699
249.500 4.667832
250.500 4.699301
251.300 4.559441
251.800 4.618881
252.500 4.566434
253.500 4.506993
254.500 4.461538
255.500 4.433566
256.500 4.377622
257.500 4.346154
258.500 4.297203
259.500 4.248252
260.500 4.192308
261.500 4.143357
262.500 4.108392
263.500 4.066434
264.500 4.062937
265.500 4.017483
266.500 3.958042
267.500 3.926573
268.500 3.898601
269.500 3.835664
270.500 3.811189
271.500 3.762238
272.500 3.706294
273.500 3.667832
274.500 3.618881
275.500 3.587413
276.500 3.552448
277.500 3.548951
278.500 3.506993
279.500 3.405944
280.500 3.400350
281.500 3.412937
282.500 3.364336
283.500 3.331818
284.500 3.304895
285.500 3.266084
286.500 3.245455
287.500 3.212937
288.500 3.185664
289.500 3.155594
291.000 3.119231
293.000 3.054545
295.000 2.984965
297.000 2.944056
299.000 2.890559
301.000 2.831119
303.000 2.770629
305.000 2.711888
307.000 2.653497
309.000 2.599301
311.000 2.544406
313.000 2.490559
315.000 2.441608
317.000 2.394755
319.000 2.329720
321.000 2.293007
323.000 2.251049
325.000 2.212238
327.000 2.174825
329.000 2.133566
331.000 2.096853
332.200 2.096154
332.300 2.113636
332.400 2.102448
332.500 2.095804
332.600 2.078671
332.700 2.061189
332.800 2.059091
332.900 2.064336
333.000 2.069580
333.100 2.067832
333.200 2.056643
333.300 2.037413
333.400 2.025524
333.500 2.020280
333.600 2.013287
333.700 1.996154
333.800 1.973776
333.900 1.972028
334.000 1.965035
334.100 1.984266
334.200 1.995455
334.300 2.029720
334.400 2.058042
334.500 2.074126
334.600 2.094406
334.700 2.097552
334.800 2.067133
334.900 2.006294
335.000 1.923077
335.100 1.928671
335.200 1.962937
335.300 1.982517
335.400 1.979371
335.500 1.956643
335.600 1.952098
335.700 1.956643
335.800 1.958042
335.900 1.953497
336.000 1.962937
336.100 1.958042
336.200 1.969580
336.300 1.962238
336.400 1.958042
336.500 1.940210
336.600 1.920979
336.700 1.905944
336.800 1.894406
336.900 1.900000
337.000 1.928671
337.100 1.934266
337.200 1.913287
337.300 1.908741
337.400 1.918881
337.500 1.956294
337.600 1.969930
337.700 1.933566
337.800 1.911538
337.900 1.900350
338.000 1.920629
338.100 1.947552
338.200 1.971329
338.300 1.980420
338.400 1.973776
338.500 1.974126
338.600 1.974825
338.700 1.971678
338.800 1.969231
338.900 1.962587
339.000 1.964336
339.100 1.968531
339.200 1.971678
339.300 1.972378
339.400 1.989161
339.500 1.996154
339.600 1.994406
339.700 1.972727
339.800 1.953846
339.900 1.914685
340.000 1.890909
340.100 1.907343
340.200 1.889860
340.300 1.881469
340.400 1.881469
340.500 1.886364
340.600 1.875524
340.700 1.879021
340.800 1.891958
340.900 1.903147
341.000 1.907343
341.100 1.877273
341.200 1.883217
341.300 1.904895
341.400 1.929720
341.500 1.939161
341.600 1.940909
341.700 1.941259
341.800 1.945455
341.900 1.953147
342.000 1.951399
342.100 1.948601
342.200 1.937762
342.300 1.931469
342.400 1.929021
342.500 1.925874
342.600 1.937063
342.700 1.944406
342.800 1.951399
342.900 1.952797
343.000 1.932168
343.100 1.931469
343.200 1.931469
343.300 1.940559
343.400 1.943357
343.500 1.942308
343.600 1.945804
343.700 1.944755
343.800 1.948951
343.900 1.937762
344.000 1.907343
344.100 1.885315
344.200 1.876923
344.300 1.889860
344.400 1.900699
344.500 1.894755
344.600 1.898252
344.700 1.903497
344.800 1.924825
344.900 1.938112
345.000 1.893007
345.100 1.850350
345.200 1.830420
345.300 1.824825
345.400 1.834266
345.500 1.837762
345.600 1.839161
345.700 1.838811
345.800 1.832517
345.900 1.830420
346.000 1.824825
346.100 1.822378
346.200 1.830769
346.300 1.867832
346.400 1.851049
346.500 1.852448
346.600 1.858042
346.700 1.855245
346.800 1.851748
346.900 1.848252
347.000 1.858042
347.100 1.848951
347.200 1.844755
347.300 1.847552
347.400 1.849650
347.500 1.842657
347.600 1.834266
347.700 1.806294
347.800 1.779720
347.900 1.765035
348.000 1.779371
348.100 1.801049
348.200 1.788811
348.300 1.767483
348.400 1.766434
348.500 1.799650
348.600 1.830070
348.700 1.847203
348.800 1.866783
348.900 1.862587
349.000 1.847902
349.100 1.844056
349.200 1.859790
349.300 1.865035
349.400 1.854895
349.500 1.839161
349.600 1.829021
349.700 1.835664
349.800 1.845455
349.900 1.840210
350.000 1.808741
350.100 1.791608
350.200 1.800699
350.300 1.808741
350.400 1.795105
350.500 1.773077
350.600 1.762587
350.700 1.765385
350.800 1.781469
350.900 1.787762
351.000 1.791259
351.100 1.791958
351.200 1.786364
351.300 1.773077
351.400 1.771329
351.500 1.781469
351.600 1.793357
351.700 1.793357
351.800 1.794406
351.900 1.795455
352.000 1.796154
352.100 1.788811
352.200 1.780769
352.300 1.782867
352.400 1.793357
352.500 1.791608
352.600 1.789860
352.700 1.784965
352.800 1.787063
352.900 1.796154
353.000 1.806993
353.100 1.816084
353.200 1.826923
353.300 1.819930
353.400 1.800350
353.500 1.793007
353.600 1.793357
353.700 1.783916
353.800 1.784615
353.900 1.785664
354.000 1.794755
354.100 1.799650
354.200 1.800699
354.300 1.799301
354.400 1.803497
354.500 1.807343
354.600 1.809441
354.700 1.817832
354.800 1.823427
354.900 1.816783
355.000 1.809790
355.100 1.810140
355.200 1.818182
355.300 1.822028
355.400 1.811189
355.500 1.802797
355.600 1.798252
355.700 1.802797
355.800 1.804196
355.900 1.797552
356.000 1.789860
356.100 1.795804
356.200 1.802098
356.300 1.797902
356.400 1.785664
356.500 1.779021
356.600 1.780070
356.700 1.774126
356.800 1.780769
356.900 1.774825
357.000 1.753497
357.100 1.710140
357.200 1.692308
357.300 1.691958
357.400 1.692308
357.500 1.696853
357.600 1.708741
357.700 1.708392
357.800 1.702797
357.900 1.698252
358.000 1.700699
358.100 1.704895
358.200 1.699301
358.300 1.694755
358.400 1.696503
358.500 1.690559
358.600 1.682517
358.700 1.677622
358.800 1.669231
358.900 1.673077
359.000 1.685315
359.100 1.687063
359.200 1.683217
359.300 1.685664
359.400 1.689161
359.500 1.691958
359.600 1.691608
359.700 1.696853
359.800 1.705594
359.900 1.711189
360.000 1.718531
360.100 1.715035
360.200 1.716084
360.300 1.706993
360.400 1.698951
360.500 1.696503
360.600 1.698252
360.700 1.701049
360.800 1.708392
360.900 1.716084
361.000 1.719580
361.100 1.709091
361.200 1.704895
361.300 1.700000
361.400 1.693706
361.500 1.690909
361.600 1.698601
361.700 1.706643
361.800 1.715734
361.900 1.723427
362.000 1.713986
362.100 1.712937
362.200 1.730769
362.300 1.735664
362.400 1.728671
362.500 1.729371
362.600 1.738462
362.700 1.748951
362.800 1.746853
362.900 1.733916
363.000 1.727273
363.100 1.722727
363.200 1.720629
363.300 1.726573
363.400 1.746154
363.500 1.743357
363.600 1.706294
363.700 1.689860
363.800 1.693007
363.900 1.697552
364.000 1.698951
364.100 1.701399
364.200 1.703846
364.300 1.697203
364.400 1.684965
364.500 1.682867
364.600 1.676224
364.700 1.678671
364.800 1.682517
364.900 1.681818
365.000 1.681469
365.100 1.679371
365.200 1.679021
365.300 1.677972
365.400 1.677622
365.500 1.680070
365.600 1.687413
365.700 1.684965
365.800 1.680420
365.900 1.675175
366.000 1.663986
366.100 1.665035
366.200 1.662937
366.300 1.669231
366.400 1.672028
366.500 1.666783
366.600 1.665035
366.700 1.659091
366.800 1.657343
366.900 1.663986
367.000 1.669930
367.100 1.667832
367.200 1.666084
367.300 1.657343
367.400 1.651399
367.500 1.640559
367.600 1.639510
367.700 1.637063
367.800 1.633217
367.900 1.635315
368.000 1.639161
368.100 1.648601
368.200 1.645804
368.300 1.641958
368.400 1.641958
368.500 1.634965
368.600 1.621678
368.700 1.619930
368.800 1.643357
368.900 1.674825
369.000 1.671329
369.100 1.639161
369.200 1.642657
369.300 1.669580
369.400 1.696503
369.500 1.690559
369.600 1.646503
369.700 1.625175
369.800 1.629021
369.900 1.680070
370.000 1.737762
370.100 1.743706
370.200 1.694406
370.300 1.600000
370.400 1.553497
370.500 1.551748
370.600 1.615385
370.700 1.679021
370.800 1.732867
370.900 1.709091
371.000 1.640210
371.100 1.566084
371.200 1.524825
371.300 1.549301
371.400 1.622727
371.500 1.740559
371.600 1.805944
371.700 1.841259
371.800 1.830769
371.900 1.755944
372.000 1.617832
372.100 1.536713
372.200 1.486364
372.300 1.526224
372.400 1.618881
372.500 1.740559
372.600 1.794406
372.700 1.857692
372.800 1.883566
372.900 1.892657
373.000 1.871678
373.100 1.798252
373.200 1.665734
373.300 1.552448
373.400 1.453147
373.500 1.437063
373.600 1.499650
373.700 1.632517
373.800 1.738811
373.900 1.867483
374.000 1.932867
374.100 1.976573
374.200 1.983566
374.300 1.967832
374.400 1.940559
374.500 1.896154
374.600 1.818531
374.700 1.710839
374.800 1.593357
374.900 1.448951
375.000 1.403497
375.100 1.432168
375.200 1.538112
375.300 1.651748
375.400 1.780420
375.500 1.850699
375.600 1.917483
375.700 1.929720
375.800 1.921678
375.900 1.904545
376.000 1.892657
376.100 1.891608
376.200 1.927622
376.300 1.937063
376.400 1.919580
376.500 1.873427
376.600 1.806993
376.700 1.733916
376.800 1.613287
376.900 1.481469
377.000 1.381469
377.100 1.344406
377.200 1.425524
377.300 1.562937
377.400 1.677622
377.500 1.780070
377.600 1.856993
377.700 1.913636
377.800 1.970280
377.900 2.001049
378.000 2.032867
378.100 2.049301
378.200 2.062238
378.300 2.056294
378.400 2.051748
378.500 2.055245
378.600 2.047902
378.700 2.034615
378.800 2.020280
378.900 2.000699
379.000 1.972727
379.100 1.938462
379.200 1.887413
379.300 1.827972
379.400 1.750000
379.500 1.618531
379.600 1.489860
379.700 1.356294
379.800 1.294406
379.900 1.341259
380.000 1.482867
380.100 1.617133
380.200 1.750699
380.300 1.828671
380.400 1.894056
380.500 1.945455
380.600 1.968182
380.700 1.994056
380.800 2.016434
380.900 2.044056
381.000 2.067832
381.100 2.080420
381.200 2.066084
381.300 2.041958
381.400 2.021678
381.500 2.018182
381.600 2.019231
381.700 2.019231
381.800 2.004895
381.900 1.977273
382.000 1.954895
382.100 1.952448
382.200 1.981119
382.300 1.990909
382.400 1.977972
382.500 1.953497
382.600 1.920979
382.700 1.904895
382.800 1.875524
382.900 1.830070
383.000 1.778322
383.100 1.699650
383.200 1.607692
383.300 1.477972
383.400 1.318531
383.500 1.247552
383.600 1.242308
383.700 1.332867
383.800 1.460490
383.900 1.596154
384.000 1.692308
384.100 1.788462
384.200 1.845455
384.300 1.906294
384.400 1.943357
384.500 1.975524
384.600 1.994755
384.700 2.005594
384.800 2.010140
384.900 2.011888
385.000 2.015385
385.100 2.032867
385.200 2.044056
385.300 2.040909
385.400 2.027972
385.500 2.014336
385.600 2.002797
385.700 2.005944
385.800 2.023427
385.900 2.038811
386.000 2.047203
386.100 2.044406
386.200 2.022378
386.300 1.983217
386.400 1.979371
386.500 1.985664
386.600 1.991608
386.700 2.004895
386.800 2.015734
386.900 2.017483
387.000 2.010140
387.100 1.994056
387.200 1.971329
387.300 1.962238
387.400 1.969231
387.500 1.980769
387.600 1.976224
387.700 1.957692
387.800 1.940559
387.900 1.924126
388.000 1.913636
388.100 1.885664
388.200 1.840210
388.300 1.796154
388.400 1.738112
388.500 1.652098
388.600 1.537413
388.700 1.376573
388.800 1.248601
388.900 1.188811
389.000 1.238112
389.100 1.371329
389.200 1.534615
389.300 1.646503
389.400 1.737413
389.500 1.791608
389.600 1.840559
389.700 1.884266
389.800 1.906643
389.900 1.918182
390.000 1.924825
390.100 1.948951
390.200 1.977273
390.300 1.993007
390.400 1.994755
390.500 1.986713
390.600 1.979371
390.700 1.989161
390.800 2.016084
390.900 2.041259
391.000 2.046503
391.100 2.049301
391.200 2.040909
391.300 2.022727
391.400 2.006993
391.500 2.009091
391.600 2.020629
391.700 2.026224
391.800 2.022028
391.900 2.008741
392.000 2.005944
392.100 2.006643
392.200 2.000000
392.300 1.983566
392.400 1.977622
392.500 1.987063
392.600 1.983217
392.700 1.982168
392.800 1.966434
392.900 1.947552
393.000 1.927273
393.100 1.880420
393.200 1.766434
393.300 1.622028
393.400 1.615734
393.500 1.716434
393.600 1.827622
393.700 1.891259
393.800 1.932168
393.900 1.958392
394.000 1.983916
394.100 2.002098
394.200 2.005594
394.300 1.991608
394.400 1.974825
394.500 1.958392
394.600 1.953147
394.700 1.959790
394.800 1.964685
394.900 1.960839
395.000 1.952448
395.100 1.941259
395.200 1.932517
395.300 1.933916
395.400 1.936713
395.500 1.928322
395.600 1.910839
395.700 1.893706
395.800 1.887413
395.900 1.879720
396.000 1.858042
396.100 1.829371
396.200 1.786364
396.300 1.745455
396.400 1.686713
396.500 1.611189
396.600 1.502098
396.700 1.312238
396.800 1.124476
396.900 1.009790
397.000 0.997552
397.100 1.089510
397.200 1.245804
397.300 1.390559
397.400 1.524825
397.500 1.619231
397.600 1.691958
397.700 1.747203
397.800 1.770979
397.900 1.809441
398.000 1.831469
398.100 1.852448
398.200 1.863636
398.300 1.869930
398.400 1.884965
398.500 1.898951
398.600 1.899650
398.700 1.886014
398.800 1.914336
398.900 1.923427
399.000 1.930070
399.100 1.934965
399.200 1.936364
399.300 1.940559
399.400 1.941259
399.500 1.943706
399.600 1.933217
399.700 1.926224
399.800 1.925175
399.900 1.928322
400.000 1.917832
400.100 1.906643
400.200 1.903846
400.300 1.900350
400.400 1.902797
400.500 1.905594
400.600 1.909441
400.700 1.911189
400.800 1.913986
400.900 1.909441
401.000 1.906294
401.100 1.910140
401.200 1.917133
401.300 1.920280
401.400 1.922028
401.500 1.924476
401.600 1.932517
401.700 1.944406
401.800 1.954196
401.900 1.959091
402.000 1.956294
402.100 1.947203
402.200 1.933566
402.300 1.902797
402.400 1.861538
402.500 1.827622
402.600 1.822378
402.700 1.847902
402.800 1.881469
402.900 1.905594
403.000 1.922028
403.100 1.925175
403.200 1.927273
403.300 1.926923
403.400 1.929371
403.500 1.938112
403.600 1.945105
403.700 1.948252
403.800 1.950699
403.900 1.948601
404.000 1.952448
404.100 1.956294
404.200 1.948951
404.300 1.939860
404.400 1.926923
404.500 1.912587
404.600 1.905245
404.700 1.913636
404.800 1.925524
404.900 1.934615
405.000 1.936364
405.100 1.934615
405.200 1.932517
405.300 1.923077
405.400 1.920979
405.500 1.928671
405.600 1.931119
405.700 1.933566
405.800 1.935315
405.900 1.938811
406.000 1.937762
406.100 1.923427
406.200 1.910839
406.300 1.900350
406.400 1.874126
406.500 1.822727
406.600 1.827273
406.700 1.842308
406.800 1.844755
406.900 1.843007
407.000 1.834615
407.100 1.823776
407.200 1.819580
407.300 1.816783
407.400 1.822378
407.500 1.820629
407.600 1.806643
407.700 1.795105
407.800 1.791958
407.900 1.805944
408.000 1.821329
408.100 1.829021
408.200 1.827273
408.300 1.819580
408.400 1.806993
408.500 1.797902
408.600 1.790559
408.700 1.794406
408.800 1.794056
408.900 1.791608
409.000 1.777273
409.100 1.762587
409.200 1.746154
409.300 1.715035
409.400 1.683916
409.500 1.634965
409.600 1.583916
409.700 1.525175
409.800 1.433217
409.900 1.327273
410.000 1.193357
410.100 1.078671
410.200 1.048951
410.300 1.120280
410.400 1.258042
410.500 1.403147
410.600 1.495455
410.700 1.559790
410.800 1.607692
410.900 1.635315
411.000 1.663636
411.100 1.685315
411.200 1.711189
411.300 1.730769
411.400 1.752098
411.500 1.769930
411.600 1.782168
411.700 1.779720
411.800 1.768182
411.900 1.761888
412.000 1.759091
412.100 1.758741
412.200 1.760140
412.300 1.766084
412.400 1.777622
412.500 1.790210
412.600 1.780769
412.700 1.760490
412.800 1.741958
412.900 1.732867
413.000 1.733916
413.100 1.743706
413.200 1.753497
413.300 1.765385
413.400 1.783217
413.500 1.791608
413.600 1.797203
413.700 1.800000
413.800 1.808042
413.900 1.813287
414.000 1.813636
414.100 1.807343
414.200 1.791608
414.300 1.774476
414.400 1.763986
414.500 1.772028
