# Wavelength (nm)   F_lamA (normalized erg/cm2/s/A)9.100 0.000009
9.400 0.000016
9.600 0.000023
9.800 0.000033
10.000 0.000045
10.200 0.000062
10.400 0.000083
10.600 0.000111
10.800 0.000145
11.000 0.000189
11.400 0.000310
11.800 0.000491
12.100 0.000678
12.500 0.001017
12.700 0.001232
12.800 0.001353
13.100 0.001776
13.200 0.001939
13.400 0.002301
13.700 0.002947
14.000 0.003732
14.300 0.004677
14.700 0.006224
15.100 0.008153
15.500 0.010528
15.900 0.013410
16.200 0.015945
16.600 0.019878
17.000 0.024514
17.300 0.028495
17.700 0.034524
18.000 0.039634
18.200 0.043337
18.600 0.051490
19.100 0.063117
19.400 0.070982
19.800 0.082462
20.200 0.095115
20.500 0.105471
21.000 0.124328
21.600 0.149682
22.000 0.168344
22.300 0.183195
22.700 0.204299
23.000 5.046409
23.400 5.657059
24.000 7.278945
24.600 9.838788
25.200 12.388862
25.700 9.853444
26.000 13.761602
26.400 17.371764
26.900 17.909135
27.400 18.275525
27.900 17.127504
28.400 18.827553
29.000 18.817782
29.600 17.015144
30.100 11.113825
30.800 13.727406
31.800 17.650220
32.800 17.699072
33.800 17.215437
34.800 16.785540
35.700 17.313141
36.600 18.060576
37.500 17.713727
38.500 16.409380
39.500 17.254519
40.500 17.532975
41.400 17.322912
42.200 16.800195
43.000 16.409380
44.100 16.687836
45.100 16.482658
46.000 15.911089
47.000 15.642404
48.000 15.622863
49.000 15.002443
50.000 15.158769
50.600 16.468002
51.200 20.693698
52.000 20.141671
53.000 19.609184
54.000 18.270640
55.000 18.016610
56.000 19.096238
57.000 18.930142
58.000 18.270640
59.000 18.255984
60.000 17.572057
61.000 17.078652
62.000 17.611138
63.000 17.181241
64.000 17.107963
65.000 16.692721
65.800 16.213972
66.500 16.370298
67.500 16.282364
68.500 15.549585
69.500 15.749878
70.500 14.973131
71.600 15.329751
72.600 15.139228
73.500 14.973131
74.500 14.631168
75.500 14.372252
76.500 13.952125
77.500 13.913043
78.500 13.683439
79.500 13.522228
80.500 13.370787
81.500 13.219345
82.500 13.077675
83.500 12.359551
84.500 12.667318
85.500 12.447484
86.500 12.369321
87.500 12.208109
88.500 12.032242
89.500 11.856375
90.500 11.597460
91.500 11.968735
92.500 22.730826
93.500 32.193454
94.500 46.111383
95.500 51.929653
96.500 59.794822
97.500 35.769419
98.500 60.332193
99.500 57.352223
100.500 59.892526
101.500 55.935515
102.500 34.523693
103.500 51.343429
104.500 58.231558
105.500 57.156815
106.500 53.492916
107.500 54.274548
108.500 50.219834
109.500 52.808989
110.500 50.806058
111.500 49.877870
112.500 47.205667
113.500 48.158280
114.500 46.238398
115.500 45.837811
116.500 45.119687
117.500 39.628725
118.500 42.594040
119.500 40.170982
120.500 36.438691
121.500 23.502687
122.500 35.324866
123.500 38.011724
124.500 37.826087
125.500 37.396190
126.500 36.521739
127.500 36.472887
128.500 35.886663
129.500 34.157303
130.500 33.644358
131.500 33.888617
132.500 32.896922
133.500 31.866146
134.500 31.880801
135.500 31.338544
136.500 30.459209
137.500 29.887640
138.500 29.477284
139.500 27.430386
140.500 26.770884
141.500 27.826087
142.500 27.122618
143.500 26.853933
144.200 26.599902
144.700 26.331216
145.500 25.872008
146.500 25.334636
147.500 24.904739
148.500 24.504152
149.500 24.025403
150.500 23.478261
151.200 23.014167
151.700 22.921348
152.500 22.554958
153.500 21.582804
154.500 20.918417
155.500 20.488520
156.500 20.630191
157.500 20.561798
158.500 20.327308
159.500 20.063508
160.500 19.369809
161.500 19.032731
162.500 18.754275
163.500 18.495359
164.500 17.874939
165.500 18.006839
166.500 17.879824
167.200 17.386419
167.700 17.645335
168.500 17.410845
169.500 17.054226
170.500 16.687836
171.500 16.262824
172.500 16.028334
173.500 15.994138
174.500 15.676600
175.500 15.505618
176.500 15.075721
177.500 14.978017
178.500 14.792379
179.500 14.616512
180.500 14.435760
181.500 14.113337
182.500 13.937469
183.500 13.727406
184.500 13.292623
185.500 13.028823
186.500 12.926234
187.500 12.877382
188.500 12.452369
189.500 12.139717
190.500 12.217880
191.500 11.890572
192.500 11.646312
193.500 11.646312
194.500 11.597460
195.500 11.196873
196.700 11.221299
197.600 11.182218
198.400 10.923302
199.500 10.654617
200.500 10.635076
201.500 10.527601
202.500 10.449438
203.500 10.210064
204.500 10.078163
205.500 9.086468
206.500 9.311187
207.400 9.794822
207.800 9.643381
208.500 9.604299
209.500 9.408891
210.500 9.364924
211.500 9.286761
212.500 9.198828
213.500 9.042501
214.500 8.900830
215.500 8.851979
216.500 8.671226
217.500 8.593063
218.500 8.456277
219.500 8.417196
220.500 8.280410
221.500 8.119199
222.500 8.026380
223.500 7.967758
224.500 7.855398
225.500 7.689301
226.500 7.650220
227.500 7.562286
228.500 7.479238
229.500 7.303371
230.500 7.230093
231.500 7.171470
232.500 6.761114
233.500 6.976063
234.500 6.853933
235.500 6.819736
236.500 6.697606
237.500 6.638984
238.500 6.468002
239.500 6.468002
240.500 6.380068
241.500 6.306790
242.500 6.262824
243.500 6.160234
244.500 6.106497
245.500 6.038105
246.500 5.955056
247.500 5.881778
248.500 5.828041
249.500 5.622863
250.500 5.696141
251.300 5.505618
251.800 5.598437
252.500 5.534929
253.500 5.466536
254.500 5.398144
255.500 5.373718
256.500 5.305325
257.500 5.266243
258.500 5.207621
259.500 5.144113
260.500 5.075721
261.500 5.017098
262.500 4.973131
263.500 4.919394
264.500 4.909624
265.500 4.853933
266.500 4.781632
267.500 4.739619
268.500 4.704934
269.500 4.624817
270.500 4.595994
271.500 4.535906
272.500 4.466048
273.500 4.414753
274.500 4.360528
275.500 4.319980
276.500 4.274548
277.500 4.266243
278.500 4.215926
279.500 4.104055
280.500 4.097215
281.500 4.096727
282.500 4.033708
283.500 3.987298
284.500 3.958964
285.500 3.916952
286.500 3.888129
287.500 3.845628
288.500 3.810454
289.500 3.772838
291.000 3.724475
293.000 3.643869
295.000 3.556424
297.000 3.504152
299.000 3.435760
301.000 3.362970
303.000 3.290181
305.000 3.218368
307.000 3.148021
309.000 3.080117
311.000 3.014656
313.000 2.948705
315.000 2.888617
317.000 2.829507
319.000 2.752809
321.000 2.705423
323.000 2.657548
325.000 2.607719
327.000 2.559355
329.000 2.508061
331.000 2.462140
332.200 2.463605
332.300 2.479238
332.400 2.462628
332.500 2.452369
332.600 2.438202
332.700 2.429897
332.800 2.426478
332.900 2.426966
333.000 2.426478
333.100 2.424524
333.200 2.413776
333.300 2.391793
333.400 2.377137
333.500 2.367367
333.600 2.361993
333.700 2.348315
333.800 2.320957
333.900 2.311187
334.000 2.300928
334.100 2.325843
334.200 2.343918
334.300 2.383000
334.400 2.409380
334.500 2.428920
334.600 2.452369
334.700 2.459209
334.800 2.425989
334.900 2.363947
335.000 2.268197
335.100 2.267709
335.200 2.299951
335.300 2.317538
335.400 2.310699
335.500 2.287250
335.600 2.286273
335.700 2.295066
335.800 2.306302
335.900 2.312164
336.000 2.323889
336.100 2.315095
336.200 2.319980
336.300 2.307279
336.400 2.300928
336.500 2.277479
336.600 2.255984
336.700 2.236932
336.800 2.228627
336.900 2.239863
337.000 2.274548
337.100 2.277479
337.200 2.247680
337.300 2.235467
337.400 2.242306
337.500 2.280899
337.600 2.296043
337.700 2.258915
337.800 2.243771
337.900 2.237421
338.000 2.264289
338.100 2.291158
338.200 2.310210
338.300 2.310699
338.400 2.302394
338.500 2.306790
338.600 2.313630
338.700 2.312164
338.800 2.306302
338.900 2.297509
339.000 2.301905
339.100 2.308745
339.200 2.316561
339.300 2.319492
339.400 2.337567
339.500 2.340498
339.600 2.332193
339.700 2.302882
339.800 2.277968
339.900 2.230581
340.000 2.204690
340.100 2.223742
340.200 2.207132
340.300 2.194431
340.400 2.193942
340.500 2.199316
340.600 2.191011
340.700 2.201759
340.800 2.217391
340.900 2.228139
341.000 2.229116
341.100 2.193942
341.200 2.198339
341.300 2.221788
341.400 2.249145
341.500 2.260870
341.600 2.260870
341.700 2.258915
341.800 2.264778
341.900 2.272106
342.000 2.268686
342.100 2.264289
342.200 2.254030
342.300 2.251588
342.400 2.252076
342.500 2.247191
342.600 2.257938
342.700 2.262824
342.800 2.271128
342.900 2.270151
343.000 2.247191
343.100 2.249634
343.200 2.249145
343.300 2.257938
343.400 2.259893
343.500 2.260381
343.600 2.263801
343.700 2.258427
343.800 2.259404
343.900 2.248168
344.000 2.215437
344.100 2.197362
344.200 2.191988
344.300 2.209575
344.400 2.220322
344.500 2.207621
344.600 2.204201
344.700 2.205178
344.800 2.225208
344.900 2.239375
345.000 2.189057
345.100 2.146556
345.200 2.126527
345.300 2.122618
345.400 2.131900
345.500 2.132877
345.600 2.135320
345.700 2.136297
345.800 2.130923
345.900 2.128481
346.000 2.121641
346.100 2.118222
346.200 2.125550
346.300 2.165608
346.400 2.144602
346.500 2.148021
346.600 2.156815
346.700 2.154861
346.800 2.147044
346.900 2.139717
347.000 2.148999
347.100 2.136786
347.200 2.132389
347.300 2.140694
347.400 2.146067
347.500 2.140205
347.600 2.129458
347.700 2.093796
347.800 2.060576
347.900 2.042501
348.000 2.055691
348.100 2.079140
348.200 2.065950
348.300 2.043967
348.400 2.045921
348.500 2.082560
348.600 2.111383
348.700 2.128481
348.800 2.154372
348.900 2.155349
349.000 2.143136
349.100 2.139228
349.200 2.155838
349.300 2.158769
349.400 2.146556
349.500 2.131900
349.600 2.122618
349.700 2.128481
349.800 2.138251
349.900 2.126527
350.000 2.086957
350.100 2.066439
350.200 2.076209
350.300 2.085002
350.400 2.068393
350.500 2.043967
350.600 2.034196
350.700 2.039570
350.800 2.058622
350.900 2.063996
351.000 2.067904
351.100 2.068881
351.200 2.062042
351.300 2.047875
351.400 2.048852
351.500 2.061553
351.600 2.071324
351.700 2.065462
351.800 2.065462
351.900 2.071324
352.000 2.074744
352.100 2.067904
352.200 2.058134
352.300 2.060576
352.400 2.075232
352.500 2.072301
352.600 2.066439
352.700 2.061065
352.800 2.062531
352.900 2.073278
353.000 2.083537
353.100 2.091842
353.200 2.103078
353.300 2.093307
353.400 2.073766
353.500 2.067904
353.600 2.068881
353.700 2.056180
353.800 2.054714
353.900 2.055203
354.000 2.064485
354.100 2.069858
354.200 2.072301
354.300 2.072301
354.400 2.078652
354.500 2.082071
354.600 2.078652
354.700 2.084514
354.800 2.088422
354.900 2.083537
355.000 2.076698
355.100 2.075232
355.200 2.083048
355.300 2.086468
355.400 2.077675
355.500 2.070347
355.600 2.063996
355.700 2.066927
355.800 2.067904
355.900 2.062531
356.000 2.054226
356.100 2.061553
356.200 2.069370
356.300 2.064973
356.400 2.050318
356.500 2.044455
356.600 2.047386
356.700 2.040059
356.800 2.048363
356.900 2.041036
357.000 2.018564
357.100 1.969712
357.200 1.948705
357.300 1.948217
357.400 1.947240
357.500 1.950660
357.600 1.963361
357.700 1.960918
357.800 1.952614
357.900 1.947240
358.000 1.951637
358.100 1.960430
358.200 1.957987
358.300 1.950171
358.400 1.946751
358.500 1.940889
358.600 1.935515
358.700 1.930630
358.800 1.921837
358.900 1.927211
359.000 1.941378
359.100 1.941866
359.200 1.933561
359.300 1.933073
359.400 1.936492
359.500 1.939424
359.600 1.937469
359.700 1.942355
359.800 1.948705
359.900 1.952614
360.000 1.959941
360.100 1.958476
360.200 1.964338
360.300 1.958476
360.400 1.949682
360.500 1.945286
360.600 1.946751
360.700 1.949682
360.800 1.957010
360.900 1.965315
361.000 1.970200
361.100 1.957987
361.200 1.952614
361.300 1.946263
361.400 1.937469
361.500 1.933073
361.600 1.942355
361.700 1.950171
361.800 1.964338
361.900 1.977040
362.000 1.966292
362.100 1.963850
362.200 1.980459
362.300 1.982902
362.400 1.975574
362.500 1.976063
362.600 1.985833
362.700 1.994626
362.800 1.990718
362.900 1.978017
363.000 1.977040
363.100 1.976551
363.200 1.975085
363.300 1.974597
363.400 1.990718
363.500 1.983879
363.600 1.942355
363.700 1.926234
363.800 1.928676
363.900 1.931607
364.000 1.935027
364.100 1.939912
364.200 1.946263
364.300 1.940401
364.400 1.926722
364.500 1.924768
364.600 1.915975
364.700 1.917440
364.800 1.921348
364.900 1.921837
365.000 1.921837
365.100 1.917929
365.200 1.914509
365.300 1.912555
365.400 1.911089
365.500 1.912066
365.600 1.918906
365.700 1.914998
365.800 1.907670
365.900 1.900342
366.000 1.890572
366.100 1.892526
366.200 1.891060
366.300 1.898876
366.400 1.900342
366.500 1.893014
366.600 1.890572
366.700 1.884221
366.800 1.882267
366.900 1.888617
367.000 1.894480
367.100 1.893014
367.200 1.888129
367.300 1.876893
367.400 1.871519
367.500 1.861749
367.600 1.864680
367.700 1.860283
367.800 1.855398
367.900 1.855398
368.000 1.858818
368.100 1.870054
368.200 1.866634
368.300 1.863214
368.400 1.863214
368.500 1.853933
368.600 1.837811
368.700 1.837323
368.800 1.862237
368.900 1.894480
369.000 1.885686
369.100 1.848070
369.200 1.851490
369.300 1.880313
369.400 1.908158
369.500 1.899365
369.600 1.851490
369.700 1.827553
369.800 1.830484
369.900 1.886175
370.000 1.945774
370.100 1.951148
370.200 1.894480
370.300 1.789448
370.400 1.740596
370.500 1.740596
370.600 1.814851
370.700 1.887152
370.800 1.947728
370.900 1.919394
371.000 1.841231
371.100 1.754763
371.200 1.707865
371.300 1.735222
371.400 1.814362
371.500 1.941866
371.600 2.011724
371.700 2.046409
371.800 2.034685
371.900 1.953102
372.000 1.803615
372.100 1.718124
372.200 1.666341
372.300 1.714216
372.400 1.810454
372.500 1.935027
372.600 1.988276
372.700 2.055691
372.800 2.083537
372.900 2.091842
373.000 2.067904
373.100 1.991207
373.200 1.853933
373.300 1.730337
373.400 1.625794
373.500 1.612604
373.600 1.683928
373.700 1.830484
373.800 1.940401
373.900 2.068881
374.000 2.131900
374.100 2.172447
374.200 2.180264
374.300 2.163654
374.400 2.138740
374.500 2.096727
374.600 2.019541
374.700 1.905716
374.800 1.777235
374.900 1.617489
375.000 1.570591
375.100 1.602833
375.200 1.714704
375.300 1.828041
375.400 1.959941
375.500 2.027357
375.600 2.093307
375.700 2.106009
375.800 2.100635
375.900 2.085491
376.000 2.071812
376.100 2.068881
376.200 2.108451
376.300 2.119199
376.400 2.100635
376.500 2.054226
376.600 1.984367
376.700 1.907181
376.800 1.780166
376.900 1.634099
377.000 1.525159
377.100 1.487054
377.200 1.577919
377.300 1.724475
377.400 1.848070
377.500 1.954079
377.600 2.033219
377.700 2.086468
377.800 2.136297
377.900 2.162677
378.000 2.190034
378.100 2.205178
378.200 2.216414
378.300 2.208109
378.400 2.202247
378.500 2.208109
378.600 2.204690
378.700 2.196385
378.800 2.186126
378.900 2.166097
379.000 2.136297
379.100 2.099658
379.200 2.050318
379.300 1.990718
379.400 1.915486
379.500 1.780655
379.600 1.638495
379.700 1.492428
379.800 1.425501
379.900 1.483146
380.000 1.642404
380.100 1.779678
380.200 1.909624
380.300 1.985344
380.400 2.043967
380.500 2.093796
380.600 2.113825
380.700 2.138251
380.800 2.162677
380.900 2.188080
381.000 2.211529
381.100 2.224231
381.200 2.214460
381.300 2.193942
381.400 2.177821
381.500 2.173425
381.600 2.169028
381.700 2.160723
381.800 2.133854
381.900 2.096238
382.000 2.074744
382.100 2.082071
382.200 2.125550
382.300 2.137763
382.400 2.128969
382.500 2.107963
382.600 2.077675
382.700 2.062531
382.800 2.035173
382.900 1.989741
383.000 1.937469
383.100 1.858818
383.200 1.762091
383.300 1.626282
383.400 1.448461
383.500 1.369321
383.600 1.367367
383.700 1.471422
383.800 1.610650
383.900 1.759648
384.000 1.855398
384.100 1.946751
384.200 2.001466
384.300 2.058622
384.400 2.094773
384.500 2.123596
384.600 2.138251
384.700 2.147044
384.800 2.149487
384.900 2.151441
385.000 2.156326
385.100 2.175379
385.200 2.188080
385.300 2.182218
385.400 2.163166
385.500 2.144602
385.600 2.131900
385.700 2.138251
385.800 2.160234
385.900 2.179775
386.000 2.190523
386.100 2.185149
386.200 2.157303
386.300 2.110894
386.400 2.106986
386.500 2.113825
386.600 2.117733
386.700 2.129946
386.800 2.138251
386.900 2.138740
387.000 2.131900
387.100 2.114314
387.200 2.095261
387.300 2.093307
387.400 2.104543
387.500 2.115779
387.600 2.106986
387.700 2.087445
387.800 2.074255
387.900 2.063508
388.000 2.054714
388.100 2.024426
388.200 1.978994
388.300 1.935027
388.400 1.881290
388.500 1.792868
388.600 1.674157
388.700 1.503664
388.800 1.358574
388.900 1.293600
389.000 1.352223
389.100 1.497802
389.200 1.673669
389.300 1.790425
389.400 1.882267
389.500 1.938935
389.600 1.986321
389.700 2.027846
389.800 2.048363
389.900 2.059599
390.000 2.066927
390.100 2.087445
390.200 2.112360
390.300 2.128481
390.400 2.132389
390.500 2.124084
390.600 2.116268
390.700 2.126038
390.800 2.151441
390.900 2.170005
391.000 2.170493
391.100 2.173425
391.200 2.167562
391.300 2.151930
391.400 2.140205
391.500 2.144602
391.600 2.155349
391.700 2.159746
391.800 2.152418
391.900 2.134343
392.000 2.129946
392.100 2.129946
392.200 2.122618
392.300 2.103566
392.400 2.096238
392.500 2.105032
392.600 2.101612
392.700 2.108451
392.800 2.106009
392.900 2.100147
393.000 2.089399
393.100 2.043967
393.200 1.922325
393.300 1.764533
393.400 1.763068
393.500 1.885198
393.600 2.007816
393.700 2.069370
393.800 2.099170
393.900 2.115291
394.000 2.132877
394.100 2.145090
394.200 2.144602
394.300 2.124573
394.400 2.105032
394.500 2.086957
394.600 2.078163
394.700 2.083537
394.800 2.088422
394.900 2.086957
395.000 2.079629
395.100 2.068393
395.200 2.059599
395.300 2.056668
395.400 2.055691
395.500 2.042990
395.600 2.025403
395.700 2.013190
395.800 2.009282
395.900 2.003908
396.000 1.982902
396.100 1.956522
396.200 1.919394
396.300 1.877870
396.400 1.822179
396.500 1.749389
396.600 1.646312
396.700 1.452369
396.800 1.249634
396.900 1.130923
397.000 1.119687
397.100 1.218857
397.200 1.383488
397.300 1.531998
397.400 1.661456
397.500 1.752809
397.600 1.816317
397.700 1.866146
397.800 1.886663
397.900 1.922325
398.000 1.944309
398.100 1.964338
398.200 1.975574
398.300 1.980948
398.400 1.993649
398.500 2.004885
398.600 2.001466
398.700 1.985344
398.800 2.019052
398.900 2.029311
399.000 2.038105
399.100 2.042501
399.200 2.041036
399.300 2.041036
399.400 2.035662
399.500 2.039570
399.600 2.034196
399.700 2.031265
399.800 2.033708
399.900 2.039082
400.000 2.023937
400.100 2.008793
400.200 2.005374
400.300 2.001466
400.400 2.004397
400.500 2.008793
400.600 2.012213
400.700 2.011724
400.800 2.006839
400.900 1.996092
401.000 1.993161
401.100 2.003908
401.200 2.014656
401.300 2.021495
401.400 2.023937
401.500 2.025403
401.600 2.032242
401.700 2.043478
401.800 2.051295
401.900 2.055691
402.000 2.051783
402.100 2.042013
402.200 2.030777
402.300 1.996580
402.400 1.943820
402.500 1.895457
402.600 1.881778
402.700 1.911578
402.800 1.962384
402.900 1.997069
403.000 2.024915
403.100 2.031265
403.200 2.032731
403.300 2.029311
403.400 2.028823
403.500 2.035662
403.600 2.041036
403.700 2.041036
403.800 2.041524
403.900 2.038105
404.000 2.042013
404.100 2.047875
404.200 2.041524
404.300 2.032242
404.400 2.021006
404.500 2.008793
404.600 2.004397
404.700 2.013190
404.800 2.022960
404.900 2.030777
405.000 2.030777
405.100 2.027846
405.200 2.027846
405.300 2.019052
405.400 2.018075
405.500 2.025892
405.600 2.025892
405.700 2.026869
405.800 2.028823
405.900 2.030288
406.000 2.029311
406.100 2.017587
406.200 2.004397
406.300 1.995115
406.400 1.968246
406.500 1.908158
406.600 1.914021
406.700 1.930630
406.800 1.930630
406.900 1.926234
407.000 1.915486
407.100 1.905716
407.200 1.904739
407.300 1.902296
407.400 1.906693
407.500 1.903762
407.600 1.891549
407.700 1.881778
407.800 1.881778
407.900 1.896434
408.000 1.908647
408.100 1.913532
408.200 1.911089
408.300 1.903273
408.400 1.889106
408.500 1.880801
408.600 1.872496
408.700 1.876404
408.800 1.873473
408.900 1.867123
409.000 1.850024
409.100 1.836834
409.200 1.823644
409.300 1.798730
409.400 1.767953
409.500 1.719101
409.600 1.665852
409.700 1.607719
409.800 1.514411
409.900 1.401075
410.000 1.260381
410.100 1.135809
410.200 1.109917
410.300 1.193454
410.400 1.342452
410.500 1.488031
410.600 1.582804
410.700 1.645335
410.800 1.695164
410.900 1.722521
411.000 1.749878
411.100 1.771861
411.200 1.793845
411.300 1.810943
411.400 1.829507
411.500 1.845628
411.600 1.857352
411.700 1.854910
411.800 1.842208
411.900 1.834392
412.000 1.827064
412.100 1.829018
412.200 1.834880
412.300 1.846605
412.400 1.857841
412.500 1.867611
412.600 1.856864
412.700 1.835857
412.800 1.817782
412.900 1.808989
413.000 1.810943
413.100 1.821690
413.200 1.832926
413.300 1.846116
413.400 1.864680
413.500 1.872985
413.600 1.876404
413.700 1.875427
413.800 1.880313
413.900 1.882267
414.000 1.883244
414.100 1.876893
414.200 1.856375
414.300 1.837811
414.400 1.826087
