# Wavelength (nm)   F_lamA (normalized erg/cm2/s/A)9.100 0.000024
9.400 0.000036
9.600 0.000046
9.800 0.000059
10.000 0.000074
10.200 0.000093
10.400 0.000115
10.600 0.000141
10.800 0.000171
11.000 0.000206
11.400 0.000292
11.800 0.000403
12.100 0.000504
12.500 0.000665
12.700 0.000758
12.800 0.000808
13.100 0.000971
13.200 0.001030
13.400 0.001156
13.700 0.001362
14.000 0.001591
14.300 0.001843
14.700 0.002217
15.100 0.002635
15.500 0.003094
15.900 0.003596
16.200 0.004000
16.600 0.004573
17.000 0.005185
17.300 0.005669
17.700 0.006343
18.000 0.006871
18.200 0.007232
18.600 0.007978
19.100 0.008944
19.400 0.009541
19.800 0.010356
20.200 0.011187
20.500 0.011820
21.000 0.012888
21.600 0.014187
22.000 0.015058
22.300 0.015712
22.700 0.016581
23.000 0.148539
23.400 0.147266
24.000 0.146142
24.600 0.145899
25.200 0.145000
25.700 0.138352
26.000 0.141217
26.400 0.141161
26.900 0.138783
27.400 0.136554
27.900 0.133165
28.400 0.131536
29.000 0.128315
29.600 0.123783
30.100 0.115787
30.800 0.114007
31.800 0.113221
32.800 0.108727
33.800 0.103820
34.800 0.099213
35.700 0.095768
36.600 0.092547
37.500 0.088876
38.500 0.084195
39.500 0.081423
40.500 0.078352
41.400 0.075375
42.200 0.072603
43.000 0.070131
44.100 0.067322
45.100 0.064569
46.000 0.061985
47.000 0.059457
48.000 0.057228
49.000 0.054719
50.000 0.052846
50.600 0.052715
51.200 0.054419
52.000 0.052659
53.000 0.050712
54.000 0.048184
55.000 0.046498
56.000 0.045618
57.000 0.044101
58.000 0.042322
59.000 0.041086
60.000 0.039476
61.000 0.037940
62.000 0.037135
63.000 0.035843
64.000 0.034794
65.000 0.033614
65.800 0.032584
66.500 0.032079
67.500 0.031161
68.500 0.029925
69.500 0.029288
70.500 0.028109
71.600 0.027528
72.600 0.026760
73.500 0.026086
74.500 0.025281
75.500 0.024532
76.500 0.023727
77.500 0.023184
78.500 0.022528
79.500 0.021948
80.500 0.021404
81.500 0.020861
82.500 0.020356
83.500 0.019551
84.500 0.019326
85.500 0.018820
86.500 0.018408
87.500 0.017966
88.500 0.017530
89.500 0.017105
90.500 0.016631
91.500 0.019607
92.500 0.028034
93.500 0.036217
94.500 0.048652
95.500 0.052846
96.500 0.059101
97.500 0.039232
98.500 0.058839
99.500 0.056124
100.500 0.058052
101.500 0.055037
102.500 0.036835
103.500 0.050861
104.500 0.055861
105.500 0.054831
106.500 0.051891
107.500 0.052397
108.500 0.049064
109.500 0.051067
110.500 0.049382
111.500 0.048614
112.500 0.046461
113.500 0.047004
114.500 0.045412
115.500 0.045000
116.500 0.044382
117.500 0.040150
118.500 0.042097
119.500 0.039625
120.500 0.036404
121.500 0.024588
122.500 0.035449
123.500 0.037659
124.500 0.037640
125.500 0.037360
126.500 0.036573
127.500 0.036592
128.500 0.036180
129.500 0.034831
130.500 0.034513
131.500 0.035131
132.500 0.034775
133.500 0.034345
134.500 0.035356
135.500 0.035356
136.500 0.035581
137.500 0.036049
138.500 0.036610
139.500 0.036292
140.500 0.036536
141.500 0.038502
142.500 0.038446
143.500 0.038502
144.200 0.040393
144.700 0.039757
145.500 0.041667
146.500 0.040187
147.500 0.041367
148.500 0.042135
149.500 0.042921
150.500 0.044551
151.200 0.044532
151.700 0.043764
152.500 0.045300
153.500 0.046255
154.500 0.046891
155.500 0.050000
156.500 0.049588
157.500 0.056723
158.500 0.063764
159.500 0.067547
160.500 0.062041
161.500 0.070768
162.500 0.071479
163.500 0.073839
164.500 0.089139
165.500 0.073970
166.500 0.103970
167.200 0.090431
167.700 0.109813
168.500 0.118558
169.500 0.117116
170.500 0.123333
171.500 0.134663
172.500 0.136948
173.500 0.147865
174.500 0.147228
175.500 0.157697
176.500 0.142060
177.500 0.156779
178.500 0.161742
179.500 0.174232
180.500 0.197940
181.500 0.200187
182.500 0.191760
183.500 0.199813
184.500 0.181554
185.500 0.193820
186.500 0.205243
187.500 0.205805
188.500 0.209176
189.500 0.217228
190.500 0.211798
191.500 0.223408
192.500 0.229775
193.500 0.215169
194.500 0.238015
195.500 0.240075
196.700 0.252622
197.600 0.246442
198.400 0.246442
199.500 0.246816
200.500 0.238202
201.500 0.245693
202.500 0.229588
203.500 0.255805
204.500 0.268352
205.500 0.264794
206.500 0.263483
207.400 0.284082
207.800 0.284270
208.500 0.283521
209.500 0.277715
210.500 0.273221
211.500 0.283521
212.500 0.284457
213.500 0.267978
214.500 0.289700
215.500 0.286891
216.500 0.274906
217.500 0.276966
218.500 0.290637
219.500 0.311236
220.500 0.302996
221.500 0.287640
222.500 0.299438
223.500 0.328652
224.500 0.311610
225.500 0.297378
226.500 0.288015
227.500 0.309176
228.500 0.319288
229.500 0.303371
230.500 0.320974
231.500 0.324157
232.500 0.295506
233.500 0.313483
234.500 0.279775
235.500 0.333708
236.500 0.296067
237.500 0.321536
238.500 0.272097
239.500 0.305056
240.500 0.301124
241.500 0.305805
242.500 0.346255
243.500 0.338015
244.500 0.353184
245.500 0.352060
246.500 0.353371
247.500 0.336142
248.500 0.326217
249.500 0.326030
250.500 0.371348
251.300 0.332022
251.800 0.307491
252.500 0.299625
253.500 0.314232
254.500 0.319476
255.500 0.355805
256.500 0.353745
257.500 0.380712
258.500 0.381835
259.500 0.376779
260.500 0.363670
261.500 0.349813
262.500 0.384457
263.500 0.401873
264.500 0.453184
265.500 0.465543
266.500 0.434831
267.500 0.455431
268.500 0.469288
269.500 0.438202
270.500 0.449251
271.500 0.419101
272.500 0.421910
273.500 0.443633
274.500 0.383895
275.500 0.409738
276.500 0.445693
277.500 0.464419
278.500 0.442884
279.500 0.284644
280.500 0.329588
281.500 0.488764
282.500 0.495506
283.500 0.488202
284.500 0.471161
285.500 0.414981
286.500 0.485955
287.500 0.490449
288.500 0.500000
289.500 0.506180
291.000 0.537828
293.000 0.530337
295.000 0.524157
297.000 0.529401
299.000 0.538390
301.000 0.542697
303.000 0.549625
305.000 0.560112
307.000 0.558614
309.000 0.559738
311.000 0.563296
313.000 0.565730
315.000 0.568539
317.000 0.579775
319.000 0.561236
321.000 0.579588
323.000 0.568165
325.000 0.597753
327.000 0.622846
329.000 0.625843
331.000 0.628277
332.200 0.593071
332.300 0.551124
332.400 0.542697
332.500 0.555056
332.600 0.556742
332.700 0.547191
332.800 0.551124
332.900 0.556742
333.000 0.575094
333.100 0.592322
333.200 0.592509
333.300 0.599438
333.400 0.588390
333.500 0.577154
333.600 0.561985
333.700 0.551124
333.800 0.564045
333.900 0.578277
334.000 0.585019
334.100 0.585393
334.200 0.580337
334.300 0.595506
334.400 0.611610
334.500 0.607491
334.600 0.593633
334.700 0.561423
334.800 0.541948
334.900 0.531086
335.000 0.558240
335.100 0.565730
335.200 0.549064
335.300 0.546067
335.400 0.561423
335.500 0.600749
335.600 0.607865
335.700 0.585955
335.800 0.532772
335.900 0.482210
336.000 0.454869
336.100 0.466667
336.200 0.498502
336.300 0.540075
336.400 0.571161
336.500 0.560112
336.600 0.548127
336.700 0.546442
336.800 0.545693
336.900 0.547940
337.000 0.506742
337.100 0.467228
337.200 0.461985
337.300 0.488390
337.400 0.527154
337.500 0.561423
337.600 0.578464
337.700 0.571910
337.800 0.552996
337.900 0.536142
338.000 0.537079
338.100 0.546442
338.200 0.550000
338.300 0.558240
338.400 0.572472
338.500 0.585581
338.600 0.578652
338.700 0.546442
338.800 0.526030
338.900 0.557491
339.000 0.583521
339.100 0.600000
339.200 0.577154
339.300 0.547940
339.400 0.557116
339.500 0.575655
339.600 0.604120
339.700 0.618914
339.800 0.627903
339.900 0.634082
340.000 0.630899
340.100 0.619850
340.200 0.594195
340.300 0.586330
340.400 0.578839
340.500 0.587079
340.600 0.590637
340.700 0.577528
340.800 0.552060
340.900 0.556554
341.000 0.584831
341.100 0.581461
341.200 0.572097
341.300 0.552996
341.400 0.554869
341.500 0.581086
341.600 0.600000
341.700 0.608801
341.800 0.608427
341.900 0.605805
342.000 0.608427
342.100 0.611049
342.200 0.597940
342.300 0.577154
342.400 0.568352
342.500 0.574157
342.600 0.579588
342.700 0.589139
342.800 0.611423
342.900 0.634831
343.000 0.650749
343.100 0.631835
343.200 0.606554
343.300 0.590637
343.400 0.600749
343.500 0.628839
343.600 0.633333
343.700 0.615356
343.800 0.594007
343.900 0.575843
344.000 0.567790
344.100 0.556929
344.200 0.551311
344.300 0.551685
344.400 0.559176
344.500 0.567416
344.600 0.587079
344.700 0.617228
344.800 0.637266
344.900 0.647940
345.000 0.627154
345.100 0.594382
345.200 0.569850
345.300 0.566667
345.400 0.580150
345.500 0.593071
345.600 0.601311
345.700 0.608614
345.800 0.609738
345.900 0.605056
346.000 0.585393
346.100 0.565543
346.200 0.573783
346.300 0.580524
346.400 0.589326
346.500 0.582210
346.600 0.582210
346.700 0.603184
346.800 0.633333
346.900 0.654869
347.000 0.659738
347.100 0.644757
347.200 0.627715
347.300 0.597753
347.400 0.577528
347.500 0.569288
347.600 0.570599
347.700 0.598689
347.800 0.626217
347.900 0.638202
348.000 0.647566
348.100 0.642884
348.200 0.635955
348.300 0.633146
348.400 0.631835
348.500 0.642509
348.600 0.659176
348.700 0.658052
348.800 0.644195
348.900 0.618539
349.000 0.597940
349.100 0.611423
349.200 0.630899
349.300 0.629775
349.400 0.624345
349.500 0.614981
349.600 0.605805
349.700 0.608052
349.800 0.597753
349.900 0.599064
350.000 0.601498
350.100 0.604120
350.200 0.615918
350.300 0.618539
350.400 0.618165
350.500 0.608614
350.600 0.603933
350.700 0.603558
350.800 0.596255
350.900 0.598127
351.000 0.597378
351.100 0.598127
351.200 0.595131
351.300 0.590262
351.400 0.596442
351.500 0.611236
351.600 0.639700
351.700 0.659925
351.800 0.655618
351.900 0.629775
352.000 0.612734
352.100 0.601873
352.200 0.595880
352.300 0.587079
352.400 0.572472
352.500 0.564045
352.600 0.572659
352.700 0.586891
352.800 0.607678
352.900 0.626404
353.000 0.641011
353.100 0.653184
353.200 0.650375
353.300 0.631648
353.400 0.617978
353.500 0.613109
353.600 0.630712
353.700 0.659925
353.800 0.673596
353.900 0.676030
354.000 0.669288
354.100 0.662172
354.200 0.662360
354.300 0.672472
354.400 0.681835
354.500 0.678839
354.600 0.671723
354.700 0.660112
354.800 0.653933
354.900 0.658801
355.000 0.671910
355.100 0.687828
355.200 0.679026
355.300 0.657303
355.400 0.643633
355.500 0.647004
355.600 0.661985
355.700 0.682210
355.800 0.693633
355.900 0.688015
356.000 0.678277
356.100 0.672472
356.200 0.664981
356.300 0.651311
356.400 0.633521
356.500 0.616479
356.600 0.614045
356.700 0.616854
356.800 0.614794
356.900 0.609176
357.000 0.596629
357.100 0.586330
357.200 0.585206
357.300 0.588764
357.400 0.596255
357.500 0.607865
357.600 0.617041
357.700 0.628464
357.800 0.640449
357.900 0.634831
358.000 0.618539
358.100 0.601685
358.200 0.591573
358.300 0.594569
358.400 0.587640
358.500 0.569663
358.600 0.543820
358.700 0.531086
358.800 0.547940
358.900 0.582022
359.000 0.611985
359.100 0.622472
359.200 0.616667
359.300 0.615543
359.400 0.622097
359.500 0.641760
359.600 0.656929
359.700 0.661423
359.800 0.658989
359.900 0.656554
360.000 0.658427
360.100 0.647191
360.200 0.636891
360.300 0.634270
360.400 0.641760
360.500 0.642509
360.600 0.633895
360.700 0.622097
360.800 0.614981
360.900 0.617603
361.000 0.617790
361.100 0.622846
361.200 0.635393
361.300 0.643258
361.400 0.650187
361.500 0.671910
361.600 0.676592
361.700 0.666292
361.800 0.641948
361.900 0.617603
362.000 0.627528
362.100 0.647191
362.200 0.659925
362.300 0.667978
362.400 0.674532
362.500 0.693446
362.600 0.715169
362.700 0.734831
362.800 0.729026
362.900 0.700187
363.000 0.658052
363.100 0.632584
363.200 0.641199
363.300 0.664232
363.400 0.669850
363.500 0.664607
363.600 0.662360
363.700 0.678090
363.800 0.697940
363.900 0.706742
364.000 0.706929
364.100 0.698127
364.200 0.683708
364.300 0.673034
364.400 0.664981
364.500 0.661049
364.600 0.659551
364.700 0.658240
364.800 0.658240
364.900 0.653933
365.000 0.652247
365.100 0.655431
365.200 0.669288
365.300 0.684082
365.400 0.704307
365.500 0.722659
365.600 0.734457
365.700 0.739888
365.800 0.736704
365.900 0.738015
366.000 0.741386
366.100 0.729588
366.200 0.715356
366.300 0.703558
366.400 0.704307
366.500 0.713858
366.600 0.715918
366.700 0.712734
366.800 0.699251
366.900 0.689326
367.000 0.689700
367.100 0.698315
367.200 0.710487
367.300 0.717790
367.400 0.716292
367.500 0.709925
367.600 0.690449
367.700 0.668727
367.800 0.657491
367.900 0.659738
368.000 0.668727
368.100 0.674157
368.200 0.678277
368.300 0.679401
368.400 0.679026
368.500 0.666105
368.600 0.660487
368.700 0.669850
368.800 0.695131
368.900 0.720225
369.000 0.717041
369.100 0.707865
369.200 0.702996
369.300 0.706180
369.400 0.712172
369.500 0.721723
369.600 0.720412
369.700 0.708427
369.800 0.718727
369.900 0.738577
370.000 0.762172
370.100 0.759176
370.200 0.716854
370.300 0.666479
370.400 0.635019
370.500 0.631273
370.600 0.645693
370.700 0.664232
370.800 0.682397
370.900 0.682397
371.000 0.661610
371.100 0.638577
371.200 0.637828
371.300 0.667228
371.400 0.713109
371.500 0.754682
371.600 0.777154
371.700 0.780899
371.800 0.759551
371.900 0.705805
372.000 0.627341
372.100 0.571910
372.200 0.567228
372.300 0.609738
372.400 0.681835
372.500 0.736891
372.600 0.757865
372.700 0.767603
372.800 0.773783
372.900 0.776966
373.000 0.772097
373.100 0.741948
373.200 0.667603
373.300 0.590637
373.400 0.533521
373.500 0.522285
373.600 0.564419
373.700 0.635206
373.800 0.694007
373.900 0.757303
374.000 0.794195
374.100 0.807303
374.200 0.792509
374.300 0.774345
374.400 0.747378
374.500 0.719476
374.600 0.697753
374.700 0.668914
374.800 0.628090
374.900 0.587453
375.000 0.565730
375.100 0.588015
375.200 0.640824
375.300 0.719663
375.400 0.780524
375.500 0.810674
375.600 0.816667
375.700 0.794757
375.800 0.779588
375.900 0.778090
376.000 0.778652
376.100 0.792884
376.200 0.803933
376.300 0.803745
376.400 0.795131
376.500 0.777528
376.600 0.755431
376.700 0.726030
376.800 0.671161
376.900 0.615356
377.000 0.576030
377.100 0.585955
377.200 0.636517
377.300 0.706929
377.400 0.758801
377.500 0.789700
377.600 0.802809
377.700 0.821161
377.800 0.848689
377.900 0.876404
378.000 0.902809
378.100 0.914045
378.200 0.911985
378.300 0.903933
378.400 0.899813
378.500 0.887640
378.600 0.875094
378.700 0.853933
378.800 0.838015
378.900 0.832959
379.000 0.829963
379.100 0.823596
379.200 0.806180
379.300 0.779588
379.400 0.737828
379.500 0.679963
379.600 0.620599
379.700 0.562172
379.800 0.539700
379.900 0.576030
380.000 0.658240
380.100 0.729588
380.200 0.793446
380.300 0.821536
380.400 0.844195
380.500 0.851498
380.600 0.856367
380.700 0.868914
380.800 0.888951
380.900 0.913483
381.000 0.930524
381.100 0.931461
381.200 0.907491
381.300 0.881648
381.400 0.860300
381.500 0.859925
381.600 0.878464
381.700 0.901311
381.800 0.907678
381.900 0.886142
382.000 0.863670
382.100 0.855431
382.200 0.860300
382.300 0.857491
382.400 0.832584
382.500 0.808240
382.600 0.789513
382.700 0.776404
382.800 0.757491
382.900 0.741386
383.000 0.728652
383.100 0.695506
383.200 0.655243
383.300 0.586704
383.400 0.523970
383.500 0.502060
383.600 0.515169
383.700 0.554307
383.800 0.608801
383.900 0.654682
384.000 0.694569
384.100 0.743633
384.200 0.784644
384.300 0.831273
384.400 0.862360
384.500 0.880712
384.600 0.897940
384.700 0.915730
384.800 0.924906
384.900 0.918914
385.000 0.914607
385.100 0.927154
385.200 0.951311
385.300 0.972472
385.400 0.973034
385.500 0.957865
385.600 0.941011
385.700 0.929963
385.800 0.917416
385.900 0.913483
386.000 0.924157
386.100 0.946067
386.200 0.964794
386.300 0.972285
386.400 0.966854
386.500 0.958427
386.600 0.959738
386.700 0.965169
386.800 0.970412
386.900 0.969663
387.000 0.953745
387.100 0.936517
387.200 0.911236
387.300 0.897940
387.400 0.895506
387.500 0.900562
387.600 0.895693
387.700 0.871161
387.800 0.848502
387.900 0.841199
388.000 0.850375
388.100 0.852434
388.200 0.838015
388.300 0.816667
388.400 0.781648
388.500 0.736142
388.600 0.679775
388.700 0.603558
388.800 0.552809
388.900 0.544007
389.000 0.585019
389.100 0.654682
389.200 0.721910
389.300 0.755805
389.400 0.778652
389.500 0.799251
389.600 0.823970
389.700 0.845880
389.800 0.862547
389.900 0.871161
390.000 0.880150
390.100 0.891573
390.200 0.897566
390.300 0.903184
390.400 0.898315
390.500 0.896442
390.600 0.906180
390.700 0.930712
390.800 0.960674
390.900 0.987079
391.000 0.998876
391.100 1.001685
391.200 0.999813
391.300 0.992884
391.400 0.981461
391.500 0.976404
391.600 0.979026
391.700 0.978652
391.800 0.971723
391.900 0.961236
392.000 0.955993
392.100 0.954307
392.200 0.954494
392.300 0.960487
392.400 0.963296
392.500 0.960112
392.600 0.936330
392.700 0.903933
392.800 0.855993
392.900 0.802434
393.000 0.727903
393.100 0.616105
393.200 0.490824
393.300 0.398127
393.400 0.394944
393.500 0.485206
393.600 0.620037
393.700 0.729775
393.800 0.827715
393.900 0.881273
394.000 0.916105
394.100 0.936330
394.200 0.940449
394.300 0.938390
394.400 0.944569
394.500 0.952060
394.600 0.963296
394.700 0.967603
394.800 0.961985
394.900 0.953933
395.000 0.947378
395.100 0.944007
395.200 0.943071
395.300 0.950000
395.400 0.949064
395.500 0.940449
395.600 0.927341
395.700 0.913483
395.800 0.912360
395.900 0.908052
396.000 0.884082
396.100 0.853745
396.200 0.811049
396.300 0.774345
396.400 0.732959
396.500 0.658052
396.600 0.558427
396.700 0.426966
396.800 0.334831
396.900 0.307678
397.000 0.362547
397.100 0.463109
397.200 0.581835
397.300 0.658052
397.400 0.730712
397.500 0.779588
397.600 0.821536
397.700 0.855243
397.800 0.882772
397.900 0.910300
398.000 0.922659
398.100 0.928090
398.200 0.934457
398.300 0.945880
398.400 0.962360
398.500 0.978839
398.600 0.992697
398.700 1.003745
398.800 1.014981
398.900 1.019850
399.000 1.023408
399.100 1.030150
399.200 1.035581
399.300 1.044757
399.400 1.047566
399.500 1.041199
399.600 1.022659
399.700 1.009925
399.800 1.014607
399.900 1.034270
400.000 1.047378
400.100 1.055805
400.200 1.055618
400.300 1.046442
400.400 1.032022
400.500 1.019663
400.600 1.021536
400.700 1.036704
400.800 1.057865
400.900 1.069101
401.000 1.072472
401.100 1.072097
401.200 1.068914
401.300 1.067416
401.400 1.069288
401.500 1.076592
401.600 1.082959
401.700 1.087079
401.800 1.092697
401.900 1.096255
402.000 1.101124
402.100 1.098315
402.200 1.092884
402.300 1.086517
402.400 1.079963
402.500 1.080899
402.600 1.089888
402.700 1.103745
402.800 1.102809
402.900 1.092884
403.000 1.072846
403.100 1.058427
403.200 1.052434
403.300 1.055243
403.400 1.063858
403.500 1.080524
403.600 1.099251
403.700 1.119850
403.800 1.126404
403.900 1.121348
404.000 1.113296
404.100 1.108614
404.200 1.107865
404.300 1.097378
404.400 1.068539
404.500 1.042322
404.600 1.038390
404.700 1.059738
404.800 1.087266
404.900 1.105805
405.000 1.107865
405.100 1.110674
405.200 1.105993
405.300 1.096629
405.400 1.087640
405.500 1.082397
405.600 1.083708
405.700 1.083708
405.800 1.086142
405.900 1.100562
406.000 1.109363
406.100 1.100000
406.200 1.070787
406.300 1.046629
406.400 1.036330
406.500 1.035206
406.600 1.041199
406.700 1.047753
406.800 1.051124
406.900 1.049625
407.000 1.041573
407.100 1.024532
407.200 1.015356
407.300 1.021536
407.400 1.030899
407.500 1.029588
407.600 1.006554
407.700 0.985206
407.800 0.975843
407.900 0.990449
408.000 1.014607
408.100 1.031273
408.200 1.031273
408.300 1.020974
408.400 1.009176
408.500 1.000562
408.600 1.003371
408.700 1.008052
408.800 1.012547
408.900 1.012172
409.000 1.004682
409.100 0.997566
409.200 0.990824
409.300 0.973221
409.400 0.956554
409.500 0.929588
409.600 0.903558
409.700 0.873596
409.800 0.830150
409.900 0.776966
410.000 0.692509
410.100 0.633146
410.200 0.623408
410.300 0.681086
410.400 0.755056
410.500 0.828839
410.600 0.867603
410.700 0.896816
410.800 0.914607
410.900 0.928464
411.000 0.945693
411.100 0.958614
411.200 0.975281
411.300 0.988764
411.400 1.003371
411.500 1.017603
411.600 1.022659
411.700 1.019663
411.800 1.013109
411.900 1.007116
412.000 1.008614
412.100 1.015918
412.200 1.025281
412.300 1.033521
412.400 1.041386
412.500 1.045131
412.600 1.045318
412.700 1.043820
412.800 1.044195
412.900 1.047566
413.000 1.046067
413.100 1.035768
413.200 1.023221
413.300 1.023970
413.400 1.037266
413.500 1.052434
413.600 1.064981
413.700 1.076217
413.800 1.087828
413.900 1.097940
414.000 1.097378
414.100 1.083333
414.200 1.061798
414.300 1.044382
414.400 1.042697
414.500 1.052809
414.600 1.069101
414.700 1.074157
414.800 1.075655
414.900 1.078464
415.000 1.081273
415.100 1.083521
415.200 1.078090
415.300 1.070225
415.400 1.063109
415.500 1.059738
