# Wavelength (nm)   F_lamA (normalized erg/cm2/s/A)9.100 0.000000
9.400 0.000000
9.600 0.000000
9.800 0.000000
10.000 0.000000
10.200 0.000000
10.400 0.000000
10.600 0.000000
10.800 0.000000
11.000 0.000000
11.400 0.000000
11.800 0.000000
12.100 0.000000
12.500 0.000000
12.700 0.000000
12.800 0.000000
13.100 0.000000
13.200 0.000000
13.400 0.000000
13.700 0.000000
14.000 0.000000
14.300 0.000000
14.700 0.000000
15.100 0.000001
15.500 0.000001
15.900 0.000002
16.200 0.000003
16.600 0.000005
17.000 0.000007
17.300 0.000010
17.700 0.000014
18.000 0.000019
18.200 0.000020
18.600 0.000032
19.100 0.000047
19.400 0.000064
19.800 0.000091
20.200 0.000108
20.500 0.000144
21.000 0.000209
21.600 0.000297
22.000 0.000374
22.300 0.000437
22.700 0.000534
23.000 0.030671
23.400 0.205518
24.000 0.348981
24.600 0.649491
25.200 2.380306
25.700 4.960951
26.000 4.332767
26.400 15.662139
26.900 18.480475
27.400 20.772496
27.900 13.786078
28.400 24.516129
29.000 29.397284
29.600 24.855688
30.100 20.653650
30.800 24.609508
31.800 24.117148
32.800 26.969440
33.800 24.813243
34.800 23.200340
35.700 38.701188
36.600 68.930390
37.500 68.268251
38.500 50.865874
39.500 82.521222
40.500 105.263158
41.400 103.904924
42.200 92.614601
43.000 87.691002
44.100 103.904924
45.100 105.348048
46.000 90.747029
47.000 91.850594
48.000 103.225806
49.000 86.078098
50.000 106.791171
50.600 88.285229
51.200 126.994907
52.000 119.100170
53.000 108.743633
54.000 85.993209
55.000 79.601019
56.000 104.074703
57.000 115.280136
58.000 112.139219
59.000 111.544992
60.000 93.463497
61.000 84.482173
62.000 106.027165
63.000 96.519525
64.000 106.960951
65.000 100.254669
65.800 90.916808
66.500 101.443124
67.500 103.735144
68.500 89.219015
69.500 98.896435
70.500 80.619694
71.600 96.859083
72.600 96.774194
73.500 95.415959
74.500 90.237691
75.500 87.691002
76.500 76.281834
77.500 84.134126
78.500 73.327674
79.500 78.837012
80.500 80.780985
81.500 79.838710
82.500 78.972835
83.500 64.465195
84.500 75.220713
85.500 72.232598
86.500 73.514431
87.500 72.410866
88.500 70.636672
89.500 69.405772
90.500 67.147708
91.500 58.191851
92.500 89.388795
93.500 121.816638
94.500 143.548387
95.500 157.809847
96.500 168.675722
97.500 107.640068
98.500 143.293718
99.500 127.419355
100.500 133.870968
101.500 137.691002
102.500 115.280136
103.500 134.719864
104.500 145.331070
105.500 139.813243
106.500 127.589134
107.500 130.050934
108.500 119.015280
109.500 125.297114
110.500 120.203735
111.500 117.572156
112.500 108.743633
113.500 113.667233
114.500 111.205433
115.500 105.432937
116.500 100.000000
117.500 81.553480
118.500 93.803056
119.500 88.539898
120.500 85.398981
121.500 70.797963
122.500 81.366723
123.500 82.580645
124.500 80.993209
125.500 81.137521
126.500 80.993209
127.500 81.765705
128.500 81.035654
129.500 77.860781
130.500 75.747029
131.500 77.419355
132.500 74.974533
133.500 73.081494
134.500 72.597623
135.500 69.762309
136.500 66.723260
137.500 64.176570
138.500 63.336163
139.500 48.752122
140.500 40.373514
141.500 60.093379
142.500 56.230900
143.500 58.505942
144.200 56.646859
144.700 56.341256
145.500 54.414261
146.500 53.421053
147.500 52.962649
148.500 53.039049
149.500 51.477080
150.500 50.356537
151.200 49.125637
151.700 48.701188
152.500 48.013582
153.500 43.268251
154.500 34.516129
155.500 35.772496
156.500 40.696095
157.500 41.935484
158.500 41.451613
159.500 41.247878
160.500 39.303905
161.500 38.064516
162.500 38.098472
163.500 38.089983
164.500 36.969440
165.500 37.589134
166.500 37.020374
167.200 34.864177
167.700 38.081494
168.500 37.045840
169.500 36.146010
170.500 35.220713
171.500 33.803056
172.500 32.877759
173.500 33.684211
174.500 33.166384
175.500 32.563667
176.500 31.910017
177.500 31.018676
178.500 31.120543
179.500 30.398981
180.500 30.059423
181.500 29.176570
182.500 28.752122
183.500 28.429542
184.500 27.623090
185.500 27.427844
186.500 27.198642
187.500 26.689304
188.500 25.772496
189.500 25.500849
190.500 25.551783
191.500 24.923599
192.500 23.769100
193.500 24.405772
194.500 24.244482
195.500 22.954160
196.700 23.293718
197.600 23.183362
198.400 22.750424
199.500 22.232598
200.500 22.232598
201.500 21.893039
202.500 21.706282
203.500 21.027165
204.500 20.704584
205.500 16.179966
206.500 17.478778
207.400 20.178268
207.800 19.864177
208.500 19.864177
209.500 19.346350
210.500 19.134126
211.500 19.210526
212.500 18.837012
213.500 18.624788
214.500 18.208829
215.500 18.191851
216.500 17.470289
217.500 17.648557
218.500 17.122241
219.500 17.249576
220.500 16.960951
221.500 16.400679
222.500 16.375212
223.500 16.171477
224.500 15.916808
225.500 15.424448
226.500 15.475382
227.500 15.314092
228.500 14.974533
229.500 14.439728
230.500 14.303905
231.500 14.219015
232.500 13.794567
233.500 13.887946
234.500 13.667233
235.500 13.421053
236.500 13.200340
237.500 12.928693
238.500 12.376910
239.500 12.546689
240.500 12.385399
241.500 12.266553
242.500 12.207131
243.500 11.960951
244.500 11.850594
245.500 11.646859
246.500 11.528014
247.500 11.400679
248.500 11.146010
249.500 9.660441
250.500 10.789474
251.300 10.127334
251.800 10.517827
252.500 10.543294
253.500 10.492360
254.500 10.339559
255.500 10.220713
256.500 10.093379
257.500 9.974533
258.500 9.855688
259.500 9.626486
260.500 9.592530
261.500 9.405772
262.500 9.354839
263.500 9.261460
264.500 9.125637
265.500 9.040747
266.500 8.862479
267.500 8.692699
268.500 8.658744
269.500 8.497453
270.500 8.438879
271.500 8.314941
272.500 8.226655
273.500 7.943124
274.500 8.028014
275.500 7.922750
276.500 7.823430
277.500 7.764856
278.500 7.629032
279.500 7.428693
280.500 7.426146
281.500 7.389643
282.500 7.286078
283.500 7.167233
284.500 7.119694
285.500 7.025467
286.500 6.926146
287.500 6.842954
288.500 6.779287
289.500 6.695246
291.000 6.573854
293.000 6.443124
295.000 6.276740
297.000 6.126486
299.000 5.960951
301.000 5.811545
303.000 5.666384
305.000 5.563667
307.000 5.433786
309.000 5.318336
311.000 5.216469
313.000 5.084041
315.000 4.988115
317.000 4.867572
319.000 4.760611
321.000 4.600170
323.000 4.562818
325.000 4.472835
327.000 4.340407
329.000 4.269949
331.000 4.177419
332.200 4.146859
332.300 4.175722
332.400 4.147708
332.500 4.121392
332.600 4.085739
332.700 4.057725
332.800 4.040747
332.900 4.045840
333.000 4.064516
333.100 4.068761
333.200 4.049236
333.300 4.005942
333.400 3.968591
333.500 3.943124
333.600 3.917657
333.700 3.924448
333.800 3.908319
333.900 3.872666
334.000 3.834465
334.100 3.844652
334.200 3.880306
334.300 3.969440
334.400 4.012733
334.500 4.045840
334.600 4.075552
334.700 4.109508
334.800 4.078947
334.900 4.043294
335.000 3.884550
335.100 3.830221
335.200 3.823430
335.300 3.820883
335.400 3.788625
335.500 3.755518
335.600 3.786927
335.700 3.834465
335.800 3.876910
335.900 3.888795
336.000 3.904924
336.100 3.902377
336.200 3.908319
336.300 3.889643
336.400 3.857385
336.500 3.805603
336.600 3.754669
336.700 3.719864
336.800 3.718166
336.900 3.749576
337.000 3.821732
337.100 3.812394
337.200 3.758913
337.300 3.735144
337.400 3.739389
337.500 3.783531
337.600 3.792020
337.700 3.741935
337.800 3.747878
337.900 3.763158
338.000 3.814092
338.100 3.847199
338.200 3.859932
338.300 3.869270
338.400 3.864177
338.500 3.893039
338.600 3.904924
338.700 3.898132
338.800 3.894737
338.900 3.859932
339.000 3.853141
339.100 3.857385
339.200 3.886248
339.300 3.910017
339.400 3.958404
339.500 3.957555
339.600 3.915110
339.700 3.843803
339.800 3.769949
339.900 3.669779
340.000 3.644312
340.100 3.676570
340.200 3.674873
340.300 3.661290
340.400 3.663837
340.500 3.670628
340.600 3.657895
340.700 3.666384
340.800 3.682513
340.900 3.691851
341.000 3.703735
341.100 3.654499
341.200 3.652801
341.300 3.680815
341.400 3.718166
341.500 3.741935
341.600 3.740238
341.700 3.742784
341.800 3.739389
341.900 3.730900
342.000 3.727504
342.100 3.733447
342.200 3.747029
342.300 3.756367
342.400 3.752971
342.500 3.734295
342.600 3.729202
342.700 3.735993
342.800 3.754669
342.900 3.750424
343.000 3.715620
343.100 3.714771
343.200 3.720713
343.300 3.732598
343.400 3.747029
343.500 3.758065
343.600 3.754669
343.700 3.735993
343.800 3.706282
343.900 3.679966
344.000 3.624788
344.100 3.617148
344.200 3.624788
344.300 3.667233
344.400 3.679966
344.500 3.637521
344.600 3.616299
344.700 3.610357
344.800 3.649406
344.900 3.680815
345.000 3.601868
345.100 3.539049
345.200 3.502547
345.300 3.492360
345.400 3.496604
345.500 3.491511
345.600 3.516129
345.700 3.533956
345.800 3.512733
345.900 3.496604
346.000 3.487267
346.100 3.485569
346.200 3.506791
346.300 3.588285
346.400 3.555178
346.500 3.568761
346.600 3.584890
346.700 3.571307
346.800 3.542445
346.900 3.529711
347.000 3.548387
347.100 3.516129
347.200 3.505942
347.300 3.532258
347.400 3.535654
347.500 3.526316
347.600 3.509338
347.700 3.449915
347.800 3.383701
347.900 3.353990
348.000 3.376061
348.100 3.419355
348.200 3.401528
348.300 3.370968
348.400 3.389643
348.500 3.449915
348.600 3.486418
348.700 3.512733
348.800 3.558574
348.900 3.569610
349.000 3.539898
349.100 3.528014
349.200 3.576401
349.300 3.592530
349.400 3.575552
349.500 3.545840
349.600 3.511885
349.700 3.519525
349.800 3.530560
349.900 3.500849
350.000 3.438879
350.100 3.386248
350.200 3.395586
350.300 3.417657
350.400 3.390492
350.500 3.350594
350.600 3.337861
350.700 3.349745
350.800 3.371817
350.900 3.383701
351.000 3.386248
351.100 3.372666
351.200 3.355688
351.300 3.337012
351.400 3.364177
351.500 3.382852
351.600 3.382003
351.700 3.364177
351.800 3.370119
351.900 3.377759
352.000 3.382852
352.100 3.375212
352.200 3.363328
352.300 3.370119
352.400 3.400679
352.500 3.387097
352.600 3.376910
352.700 3.363328
352.800 3.357385
352.900 3.366723
353.000 3.385399
353.100 3.407470
353.200 3.425297
353.300 3.402377
353.400 3.373514
353.500 3.375212
353.600 3.375212
353.700 3.347199
353.800 3.339559
353.900 3.331919
354.000 3.345501
354.100 3.359083
354.200 3.358234
354.300 3.368421
354.400 3.380306
354.500 3.370119
354.600 3.356537
354.700 3.373514
354.800 3.393039
354.900 3.392190
355.000 3.368421
355.100 3.353990
355.200 3.369270
355.300 3.376910
355.400 3.361630
355.500 3.337861
355.600 3.325127
355.700 3.348896
355.800 3.367572
355.900 3.365874
356.000 3.348896
356.100 3.350594
356.200 3.360781
356.300 3.350594
356.400 3.335314
356.500 3.337861
356.600 3.345501
356.700 3.331919
356.800 3.342105
356.900 3.328523
357.000 3.291171
357.100 3.208829
357.200 3.183362
357.300 3.172326
357.400 3.162139
357.500 3.162139
357.600 3.179966
357.700 3.178268
357.800 3.160441
357.900 3.146010
358.000 3.155348
358.100 3.173175
358.200 3.167233
358.300 3.151104
358.400 3.148557
358.500 3.148557
358.600 3.149406
358.700 3.141766
358.800 3.121392
358.900 3.132428
359.000 3.159593
359.100 3.154499
359.200 3.133277
359.300 3.128183
359.400 3.134975
359.500 3.131579
359.600 3.119694
359.700 3.125637
359.800 3.140917
359.900 3.157046
360.000 3.180815
360.100 3.173175
360.200 3.174024
360.300 3.157895
360.400 3.153650
360.500 3.158744
360.600 3.159593
360.700 3.157895
360.800 3.158744
360.900 3.167233
361.000 3.169779
361.100 3.151104
361.200 3.156197
361.300 3.151104
361.400 3.131579
361.500 3.119694
361.600 3.130730
361.700 3.145161
361.800 3.161290
361.900 3.182513
362.000 3.171477
362.100 3.174024
362.200 3.205433
362.300 3.204584
362.400 3.185908
362.500 3.179117
362.600 3.192699
362.700 3.198642
362.800 3.185908
362.900 3.171477
363.000 3.179966
363.100 3.190153
363.200 3.183362
363.300 3.167233
363.400 3.177419
363.500 3.159593
363.600 3.092530
363.700 3.071307
363.800 3.080645
363.900 3.085739
364.000 3.085739
364.100 3.099321
364.200 3.114601
364.300 3.101868
364.400 3.074703
364.500 3.060272
364.600 3.053480
364.700 3.056027
364.800 3.065365
364.900 3.073005
365.000 3.075552
365.100 3.067063
365.200 3.057725
365.300 3.049236
365.400 3.042445
365.500 3.047538
365.600 3.050934
365.700 3.048387
365.800 3.044992
365.900 3.038200
366.000 3.024618
366.100 3.022071
366.200 3.016978
366.300 3.023769
366.400 3.023769
366.500 3.016129
366.600 3.016129
366.700 3.000000
366.800 2.987267
366.900 2.998302
367.000 3.015280
367.100 3.019525
367.200 3.004244
367.300 2.977929
367.400 2.962649
367.500 2.951613
367.600 2.966044
367.700 2.957555
367.800 2.953311
367.900 2.947368
368.000 2.937182
368.100 2.946520
368.200 2.951613
368.300 2.949066
368.400 2.942275
368.500 2.940577
368.600 2.936333
368.700 2.926146
368.800 2.936333
368.900 2.946520
369.000 2.934635
369.100 2.910017
369.200 2.902377
369.300 2.901528
369.400 2.874363
369.500 2.855688
369.600 2.858234
369.700 2.855688
369.800 2.854839
369.900 2.867572
370.000 2.891341
370.100 2.869270
370.200 2.820034
370.300 2.751273
370.400 2.694397
370.500 2.685059
370.600 2.713922
370.700 2.762309
370.800 2.777589
370.900 2.771647
371.000 2.732598
371.100 2.687606
371.200 2.658744
371.300 2.664686
371.400 2.707131
371.500 2.765705
371.600 2.804754
371.700 2.799660
371.800 2.799660
371.900 2.752971
372.000 2.674873
372.100 2.624788
372.200 2.617997
372.300 2.646859
372.400 2.690153
372.500 2.706282
372.600 2.719015
372.700 2.758913
372.800 2.791171
372.900 2.797114
373.000 2.781834
373.100 2.724958
373.200 2.663837
373.300 2.584041
373.400 2.522920
373.500 2.523769
373.600 2.577250
373.700 2.651104
373.800 2.734295
373.900 2.792869
374.000 2.828523
374.100 2.842954
374.200 2.835314
374.300 2.805603
374.400 2.792869
374.500 2.772496
374.600 2.737691
374.700 2.659593
374.800 2.554329
374.900 2.453311
375.000 2.410866
375.100 2.455008
375.200 2.521222
375.300 2.581494
375.400 2.617148
375.500 2.651952
375.600 2.669779
375.700 2.662139
375.800 2.645161
375.900 2.617997
376.000 2.596774
376.100 2.606961
376.200 2.685059
376.300 2.729202
376.400 2.721562
376.500 2.679117
376.600 2.620543
376.700 2.550085
376.800 2.471138
376.900 2.370968
377.000 2.275891
377.100 2.269100
377.200 2.343803
377.300 2.443124
377.400 2.534805
377.500 2.596774
377.600 2.634126
377.700 2.667233
377.800 2.675722
377.900 2.678268
378.000 2.689304
378.100 2.696944
378.200 2.712224
378.300 2.710526
378.400 2.700340
378.500 2.716469
378.600 2.718166
378.700 2.705433
378.800 2.690153
378.900 2.659593
379.000 2.615450
379.100 2.578098
379.200 2.559423
379.300 2.550085
379.400 2.508489
379.500 2.427844
379.600 2.301358
379.700 2.185059
379.800 2.146859
379.900 2.208829
380.000 2.333616
380.100 2.464346
380.200 2.522071
380.300 2.573854
380.400 2.605263
380.500 2.635823
380.600 2.634975
380.700 2.635823
380.800 2.642615
380.900 2.646010
381.000 2.654499
381.100 2.662139
381.200 2.652801
381.300 2.644312
381.400 2.643463
381.500 2.640917
381.600 2.631579
381.700 2.609508
381.800 2.569610
381.900 2.527165
382.000 2.509338
382.100 2.526316
382.200 2.566214
382.300 2.599321
382.400 2.601868
382.500 2.605263
382.600 2.590832
382.700 2.590832
382.800 2.570458
382.900 2.528014
383.000 2.470289
383.100 2.418506
383.200 2.342105
383.300 2.239389
383.400 2.101868
383.500 1.998302
383.600 2.031409
383.700 2.139219
383.800 2.264007
383.900 2.361630
384.000 2.441426
384.100 2.486418
384.200 2.529711
384.300 2.569610
384.400 2.599321
384.500 2.619694
384.600 2.607810
384.700 2.603565
384.800 2.596774
384.900 2.612054
385.000 2.619694
385.100 2.632428
385.200 2.641766
385.300 2.629032
385.400 2.612903
385.500 2.596774
385.600 2.583192
385.700 2.566214
385.800 2.558574
385.900 2.582343
386.000 2.601868
386.100 2.617148
386.200 2.595925
386.300 2.549236
386.400 2.516978
386.500 2.512733
386.600 2.513582
386.700 2.522071
386.800 2.531409
386.900 2.527165
387.000 2.518676
387.100 2.517827
387.200 2.511885
387.300 2.522071
387.400 2.533107
387.500 2.533107
387.600 2.521222
387.700 2.502547
387.800 2.505942
387.900 2.509338
388.000 2.511885
388.100 2.484720
388.200 2.448217
388.300 2.415110
388.400 2.388795
388.500 2.325127
388.600 2.207980
388.700 2.061121
388.800 1.914261
388.900 1.866723
389.000 1.948217
389.100 2.115450
389.200 2.247878
389.300 2.368421
389.400 2.415110
389.500 2.453311
389.600 2.484720
389.700 2.499151
389.800 2.514431
389.900 2.526316
390.000 2.536503
390.100 2.542445
390.200 2.548387
390.300 2.557725
390.400 2.561121
390.500 2.559423
390.600 2.544143
390.700 2.548387
390.800 2.569610
390.900 2.568761
391.000 2.552632
391.100 2.553480
391.200 2.565365
391.300 2.558574
391.400 2.551783
391.500 2.551783
391.600 2.555178
391.700 2.556027
391.800 2.543294
391.900 2.521222
392.000 2.508489
392.100 2.500849
392.200 2.478778
392.300 2.439728
392.400 2.430390
392.500 2.455008
392.600 2.470289
392.700 2.488964
392.800 2.505942
392.900 2.519525
393.000 2.528014
393.100 2.478778
393.200 2.327674
393.300 2.123090
393.400 2.141766
393.500 2.348896
393.600 2.466044
393.700 2.518676
393.800 2.524618
393.900 2.522071
394.000 2.528014
394.100 2.537351
394.200 2.539049
394.300 2.520374
394.400 2.490662
394.500 2.457555
394.600 2.438031
394.700 2.438879
394.800 2.447368
394.900 2.455008
395.000 2.455008
395.100 2.442275
395.200 2.428693
395.300 2.421053
395.400 2.415110
395.500 2.404924
395.600 2.393888
395.700 2.391341
395.800 2.388795
395.900 2.387946
396.000 2.375212
396.100 2.354839
396.200 2.337861
396.300 2.303056
396.400 2.256367
396.500 2.215620
396.600 2.123090
396.700 1.926146
396.800 1.685908
396.900 1.594228
397.000 1.642615
397.100 1.769100
397.200 1.926995
397.300 2.090832
397.400 2.175722
397.500 2.235993
397.600 2.269949
397.700 2.287776
397.800 2.299660
397.900 2.319185
398.000 2.332767
398.100 2.350594
398.200 2.360781
398.300 2.354839
398.400 2.343803
398.500 2.342105
398.600 2.316638
398.700 2.276740
398.800 2.349745
398.900 2.365874
399.000 2.369270
399.100 2.367572
399.200 2.361630
399.300 2.357385
399.400 2.352292
399.500 2.359083
399.600 2.360781
399.700 2.361630
399.800 2.362479
399.900 2.359083
400.000 2.336163
400.100 2.320883
400.200 2.317487
400.300 2.319185
400.400 2.320883
400.500 2.328523
400.600 2.333616
400.700 2.331070
400.800 2.321732
400.900 2.311545
401.000 2.303905
401.100 2.320034
401.200 2.340407
401.300 2.336163
401.400 2.337861
401.500 2.335314
401.600 2.337861
401.700 2.352292
401.800 2.349745
401.900 2.346350
402.000 2.338710
402.100 2.327674
402.200 2.326825
402.300 2.284380
402.400 2.206282
402.500 2.134126
402.600 2.110357
402.700 2.154499
402.800 2.231749
402.900 2.297963
403.000 2.328523
403.100 2.343803
403.200 2.344652
403.300 2.341256
403.400 2.336163
403.500 2.346350
403.600 2.349745
403.700 2.338710
403.800 2.331070
403.900 2.323430
404.000 2.325976
404.100 2.339559
404.200 2.336163
404.300 2.330221
404.400 2.325976
404.500 2.325976
404.600 2.326825
404.700 2.331070
404.800 2.336163
404.900 2.339559
405.000 2.336163
405.100 2.338710
405.200 2.344652
405.300 2.339559
405.400 2.342954
405.500 2.348896
405.600 2.342954
405.700 2.332767
405.800 2.327674
405.900 2.325976
406.000 2.326825
406.100 2.321732
406.200 2.314092
406.300 2.310696
406.400 2.269100
406.500 2.160441
406.600 2.173175
406.700 2.201188
406.800 2.191002
406.900 2.179966
407.000 2.174024
407.100 2.183362
407.200 2.198642
407.300 2.193548
407.400 2.188455
407.500 2.185908
407.600 2.182513
407.700 2.186757
407.800 2.194397
407.900 2.202886
408.000 2.208829
408.100 2.208829
408.200 2.207131
408.300 2.205433
408.400 2.191851
408.500 2.187606
408.600 2.169779
408.700 2.153650
408.800 2.129032
408.900 2.115450
409.000 2.104414
409.100 2.131579
409.200 2.154499
409.300 2.142615
409.400 2.107810
409.500 2.045840
409.600 1.977080
409.700 1.911715
409.800 1.848048
409.900 1.751273
410.000 1.645161
410.100 1.541596
410.200 1.508489
410.300 1.595925
410.400 1.764007
410.500 1.892190
410.600 1.987267
410.700 2.033107
410.800 2.068761
410.900 2.091681
411.000 2.110357
411.100 2.128183
411.200 2.138370
411.300 2.129881
411.400 2.131579
411.500 2.127334
411.600 2.123090
411.700 2.119694
411.800 2.108659
411.900 2.111205
412.000 2.112903
412.100 2.113752
412.200 2.129032
412.300 2.143463
412.400 2.149406
412.500 2.150255
412.600 2.148557
412.700 2.147708
412.800 2.141766
412.900 2.147708
413.000 2.151952
413.100 2.154499
413.200 2.145161
413.300 2.134126
413.400 2.135823
413.500 2.144312
413.600 2.148557
413.700 2.146859
413.800 2.146859
