# Wavelength (nm)   F_lamA (normalized erg/cm2/s/A)9.100 0.000103
9.400 0.000138
9.600 0.000166
9.800 0.000198
10.000 0.000234
10.200 0.000274
10.400 0.000320
10.600 0.000370
10.800 0.000426
11.000 0.000487
11.400 0.000626
11.800 0.000789
12.100 0.000928
12.500 0.001134
12.700 0.001247
12.800 0.001305
13.100 0.001490
13.200 0.001555
13.400 0.001689
13.700 0.001901
14.000 0.002125
14.300 0.002363
14.700 0.002696
15.100 0.003049
15.500 0.003420
15.900 0.003807
16.200 0.004101
16.600 0.004509
17.000 0.004928
17.300 0.005245
17.700 0.005672
18.000 0.005997
18.200 0.006212
18.600 0.006647
19.100 0.007190
19.400 0.007515
19.800 0.007946
20.200 0.008369
20.500 0.008682
21.000 0.009196
21.600 0.009796
22.000 0.010185
22.300 0.010468
22.700 0.010835
23.000 0.067409
23.400 0.066239
24.000 0.064690
24.600 0.063444
25.200 0.062122
25.700 0.060045
26.000 0.060121
26.400 0.059932
26.900 0.058497
27.400 0.057100
27.900 0.055514
28.400 0.054305
29.000 0.052681
29.600 0.050718
30.100 0.048263
30.800 0.047356
31.800 0.045770
32.800 0.043542
33.800 0.041314
34.800 0.039237
35.700 0.037594
36.600 0.036023
37.500 0.034422
38.500 0.032613
39.500 0.031186
40.500 0.029762
41.400 0.028501
42.200 0.027383
43.000 0.026348
44.100 0.025087
45.100 0.023946
46.000 0.022934
47.000 0.021911
48.000 0.020974
49.000 0.020015
50.000 0.019199
50.600 0.019052
51.200 0.019373
52.000 0.018720
53.000 0.017972
54.000 0.017111
55.000 0.016473
56.000 0.016008
57.000 0.015419
58.000 0.014781
59.000 0.014286
60.000 0.013720
61.000 0.013184
62.000 0.012813
63.000 0.012349
64.000 0.011941
65.000 0.011514
65.800 0.011163
66.500 0.010940
67.500 0.010600
68.500 0.010185
69.500 0.009917
70.500 0.009528
71.600 0.009275
72.600 0.008992
73.500 0.008746
74.500 0.008463
75.500 0.008206
76.500 0.007938
77.500 0.007723
78.500 0.007496
79.500 0.007285
80.500 0.007085
81.500 0.006892
82.500 0.006711
83.500 0.006458
84.500 0.006348
85.500 0.006174
86.500 0.006027
87.500 0.005872
88.500 0.005721
89.500 0.005578
90.500 0.005423
91.500 0.006579
92.500 0.009018
93.500 0.011186
94.500 0.014509
95.500 0.016688
96.500 0.019350
97.500 0.012171
98.500 0.057402
99.500 0.183573
100.500 0.155967
101.500 0.031960
102.500 0.011473
103.500 0.025476
104.500 0.181647
105.500 0.476964
106.500 0.657100
107.500 0.832326
108.500 0.884441
109.500 0.910876
110.500 0.955060
111.500 0.942976
112.500 0.899169
113.500 0.903323
114.500 0.820997
115.500 0.729230
116.500 0.650680
117.500 0.487538
118.500 0.288708
119.500 0.085234
120.500 0.019823
121.500 0.009441
122.500 0.017594
123.500 0.082515
124.500 0.259668
125.500 0.457704
126.500 0.533233
127.500 0.718278
128.500 0.844789
129.500 0.907100
130.500 0.908233
131.500 1.003021
132.500 1.035876
133.500 1.052115
134.500 1.109517
135.500 1.086480
136.500 1.086103
137.500 1.105740
138.500 1.129909
139.500 1.138595
140.500 1.138595
141.500 1.129909
142.500 1.132175
143.500 1.104607
144.200 1.143127
144.700 1.139350
145.500 1.145770
146.500 1.118202
147.500 1.126133
148.500 1.122734
149.500 1.114804
150.500 1.129154
151.200 1.121224
151.700 1.121224
152.500 1.097054
153.500 1.084970
154.500 1.111027
155.500 1.082704
156.500 1.022659
157.500 1.060423
158.500 1.082326
159.500 1.103097
160.500 1.057024
161.500 1.066843
162.500 1.019637
163.500 1.030589
164.500 1.049849
165.500 0.970921
166.500 1.064955
167.200 1.003399
167.700 1.030211
168.500 1.057402
169.500 1.028701
170.500 1.018127
171.500 1.034743
172.500 1.019260
173.500 1.044184
174.500 1.020770
175.500 1.040030
176.500 0.989804
177.500 1.028701
178.500 1.013595
179.500 1.029834
180.500 1.041163
181.500 1.033233
182.500 1.016994
183.500 1.015483
184.500 0.986782
185.500 0.995468
186.500 0.995091
187.500 0.997356
188.500 0.994335
189.500 0.993202
190.500 0.983006
191.500 0.980740
192.500 0.983761
193.500 0.959592
194.500 0.984139
195.500 0.978474
196.700 0.980740
197.600 0.965257
198.400 0.961858
199.500 0.953550
200.500 0.936934
201.500 0.925604
202.500 0.916918
203.500 0.933912
204.500 0.937311
205.500 0.916541
206.500 0.914275
207.400 0.931647
207.800 0.931269
208.500 0.927870
209.500 0.916541
210.500 0.910121
211.500 0.909743
212.500 0.906722
213.500 0.880665
214.500 0.900680
215.500 0.891616
216.500 0.867825
217.500 0.866692
218.500 0.873867
219.500 0.893882
220.500 0.871979
221.500 0.847054
222.500 0.846299
223.500 0.881798
224.500 0.858006
225.500 0.836103
226.500 0.824018
227.500 0.848187
228.500 0.853474
229.500 0.830816
230.500 0.841390
231.500 0.836480
232.500 0.772281
233.500 0.819109
234.500 0.772281
235.500 0.821375
236.500 0.777568
237.500 0.803248
238.500 0.748112
239.500 0.785121
240.500 0.774924
241.500 0.777568
242.500 0.806269
243.500 0.788897
244.500 0.801737
245.500 0.798716
246.500 0.787009
247.500 0.773414
248.500 0.777190
249.500 0.765106
250.500 0.802492
251.300 0.769637
251.800 0.759819
252.500 0.739426
253.500 0.737160
254.500 0.741692
255.500 0.772281
256.500 0.766616
257.500 0.786631
258.500 0.788142
259.500 0.779834
260.500 0.765483
261.500 0.752644
262.500 0.771148
263.500 0.780211
264.500 0.825151
265.500 0.827417
266.500 0.800227
267.500 0.814199
268.500 0.820997
269.500 0.798338
270.500 0.801360
271.500 0.777946
272.500 0.777946
273.500 0.793429
274.500 0.738293
275.500 0.752266
276.500 0.778323
277.500 0.796450
278.500 0.782855
279.500 0.653701
280.500 0.696752
281.500 0.806647
282.500 0.805891
283.500 0.794940
284.500 0.783988
285.500 0.755665
286.500 0.787387
287.500 0.786254
288.500 0.793051
289.500 0.793429
291.000 0.812311
293.000 0.799094
295.000 0.792674
297.000 0.794184
299.000 0.795695
301.000 0.796828
303.000 0.795695
305.000 0.795695
307.000 0.790785
309.000 0.789653
311.000 0.785121
313.000 0.781722
315.000 0.780967
317.000 0.782100
319.000 0.764728
321.000 0.772281
323.000 0.760952
325.000 0.772281
327.000 0.780589
329.000 0.779834
331.000 0.779079
332.200 0.657477
332.300 0.649547
332.400 0.651057
332.500 0.652568
332.600 0.645770
332.700 0.633686
332.800 0.646148
332.900 0.660121
333.000 0.675604
333.100 0.685801
333.200 0.681647
333.300 0.670317
333.400 0.652946
333.500 0.646903
333.600 0.633308
333.700 0.625755
333.800 0.634819
333.900 0.642372
334.000 0.648414
334.100 0.648792
334.200 0.645770
334.300 0.660121
334.400 0.675227
334.500 0.672583
334.600 0.661631
334.700 0.638973
334.800 0.614804
334.900 0.603852
335.000 0.618202
335.100 0.631798
335.200 0.631420
335.300 0.631042
335.400 0.634441
335.500 0.650302
335.600 0.658610
335.700 0.652946
335.800 0.632175
335.900 0.611405
336.000 0.595166
336.100 0.596677
336.200 0.612538
336.300 0.629154
336.400 0.640106
336.500 0.629909
336.600 0.618958
336.700 0.614426
336.800 0.610650
336.900 0.610272
337.000 0.598565
337.100 0.590257
337.200 0.583459
337.300 0.590257
337.400 0.603097
337.500 0.622734
337.600 0.643127
337.700 0.643505
337.800 0.631420
337.900 0.619713
338.000 0.616692
338.100 0.621224
338.200 0.624622
338.300 0.634819
338.400 0.640106
338.500 0.645770
338.600 0.642372
338.700 0.626133
338.800 0.617069
338.900 0.634441
339.000 0.650302
339.100 0.661254
339.200 0.651813
339.300 0.634063
339.400 0.641616
339.500 0.657100
339.600 0.672205
339.700 0.680136
339.800 0.685801
339.900 0.680514
340.000 0.670695
340.100 0.658988
340.200 0.641994
340.300 0.637840
340.400 0.635952
340.500 0.641239
340.600 0.636707
340.700 0.625755
340.800 0.621224
340.900 0.626511
341.000 0.638973
341.100 0.636707
341.200 0.633686
341.300 0.637840
341.400 0.645393
341.500 0.651435
341.600 0.646903
341.700 0.643882
341.800 0.650302
341.900 0.658610
342.000 0.666918
342.100 0.667296
342.200 0.658610
342.300 0.645015
342.400 0.638218
342.500 0.643127
342.600 0.647281
342.700 0.653323
342.800 0.662387
342.900 0.672205
343.000 0.675604
343.100 0.663897
343.200 0.650302
343.300 0.644637
343.400 0.653701
343.500 0.669940
343.600 0.673338
343.700 0.665408
343.800 0.655967
343.900 0.646903
344.000 0.639350
344.100 0.627266
344.200 0.620091
344.300 0.617447
344.400 0.622734
344.500 0.635196
344.600 0.651057
344.700 0.667674
344.800 0.679381
344.900 0.689577
345.000 0.674094
345.100 0.649547
345.200 0.630287
345.300 0.624622
345.400 0.637462
345.500 0.641994
345.600 0.635952
345.700 0.634063
345.800 0.633308
345.900 0.636329
346.000 0.633686
346.100 0.630287
346.200 0.634441
346.300 0.639350
346.400 0.639350
346.500 0.632553
346.600 0.635196
346.700 0.646526
346.800 0.659743
346.900 0.669562
347.000 0.672961
347.100 0.668429
347.200 0.658233
347.300 0.641239
347.400 0.630287
347.500 0.624245
347.600 0.627266
347.700 0.641616
347.800 0.654456
347.900 0.665030
348.000 0.672583
348.100 0.666163
348.200 0.655211
348.300 0.649169
348.400 0.649924
348.500 0.663520
348.600 0.677492
348.700 0.677870
348.800 0.668051
348.900 0.653323
349.000 0.643505
349.100 0.648036
349.200 0.657855
349.300 0.657100
349.400 0.653701
349.500 0.646526
349.600 0.638218
349.700 0.641239
349.800 0.641616
349.900 0.645393
350.000 0.643127
350.100 0.636707
350.200 0.637840
350.300 0.638218
350.400 0.640861
350.500 0.640483
350.600 0.640106
350.700 0.640483
350.800 0.634819
350.900 0.631420
351.000 0.631798
351.100 0.634441
351.200 0.636329
351.300 0.634441
351.400 0.632931
351.500 0.639350
351.600 0.650680
351.700 0.657855
351.800 0.658988
351.900 0.650302
352.000 0.642749
352.100 0.638973
352.200 0.636329
352.300 0.633308
352.400 0.627644
352.500 0.623489
352.600 0.629154
352.700 0.638218
352.800 0.649547
352.900 0.659743
353.000 0.669940
353.100 0.676360
353.200 0.673716
353.300 0.663897
353.400 0.657855
353.500 0.653701
353.600 0.656722
353.700 0.659743
353.800 0.658988
353.900 0.666163
354.000 0.668807
354.100 0.665785
354.200 0.668051
354.300 0.676737
354.400 0.680514
354.500 0.677870
354.600 0.673716
354.700 0.667674
354.800 0.666163
354.900 0.665408
355.000 0.670317
355.100 0.681269
355.200 0.678248
355.300 0.665408
355.400 0.658233
355.500 0.659743
355.600 0.668051
355.700 0.679381
355.800 0.682402
355.900 0.680514
356.000 0.677115
356.100 0.674471
356.200 0.673338
356.300 0.665785
356.400 0.653701
356.500 0.647281
356.600 0.645770
356.700 0.646526
356.800 0.641239
356.900 0.635196
357.000 0.632553
357.100 0.627266
357.200 0.623112
357.300 0.618580
357.400 0.620091
357.500 0.627644
357.600 0.634819
357.700 0.640106
357.800 0.644637
357.900 0.640106
358.000 0.633686
358.100 0.626511
358.200 0.624622
358.300 0.629532
358.400 0.621601
358.500 0.607628
358.600 0.592523
358.700 0.587613
358.800 0.597810
358.900 0.615937
359.000 0.629532
359.100 0.632931
359.200 0.630665
359.300 0.629154
359.400 0.632931
359.500 0.643127
359.600 0.650302
359.700 0.651813
359.800 0.652568
359.900 0.657477
360.000 0.659366
360.100 0.651435
360.200 0.641616
360.300 0.634063
360.400 0.634819
360.500 0.639350
360.600 0.642372
360.700 0.637840
360.800 0.632931
360.900 0.635574
361.000 0.637840
361.100 0.640861
361.200 0.643127
361.300 0.644260
361.400 0.649547
361.500 0.663520
361.600 0.666163
361.700 0.660498
361.800 0.648414
361.900 0.639728
362.000 0.648036
362.100 0.655589
362.200 0.659743
362.300 0.660876
362.400 0.664653
362.500 0.677492
362.600 0.691843
362.700 0.700906
362.800 0.693353
362.900 0.679381
363.000 0.659743
363.100 0.646526
363.200 0.651813
363.300 0.669184
363.400 0.677870
363.500 0.675227
363.600 0.670695
363.700 0.669184
363.800 0.672583
363.900 0.678625
364.000 0.681269
364.100 0.675604
364.200 0.665785
364.300 0.656722
364.400 0.652568
364.500 0.653701
364.600 0.651813
364.700 0.651057
364.800 0.652190
364.900 0.651057
365.000 0.651057
365.100 0.654456
365.200 0.663897
365.300 0.669940
365.400 0.677115
365.500 0.684668
365.600 0.690710
365.700 0.692598
365.800 0.690332
365.900 0.689577
366.000 0.687311
366.100 0.679003
366.200 0.674094
366.300 0.672961
366.400 0.675604
366.500 0.680514
366.600 0.680891
366.700 0.677870
366.800 0.671828
366.900 0.665030
367.000 0.665408
367.100 0.671828
367.200 0.682779
367.300 0.687689
367.400 0.683157
367.500 0.676737
367.600 0.663897
367.700 0.655589
367.800 0.652190
367.900 0.653701
368.000 0.659743
368.100 0.662764
368.200 0.660498
368.300 0.657477
368.400 0.651057
368.500 0.641616
368.600 0.639728
368.700 0.644260
368.800 0.664275
368.900 0.683157
369.000 0.681269
369.100 0.670317
369.200 0.666541
369.300 0.676360
369.400 0.687689
369.500 0.690710
369.600 0.676360
369.700 0.660876
369.800 0.672961
369.900 0.705816
370.000 0.742069
370.100 0.738671
370.200 0.696752
370.300 0.641239
370.400 0.612538
370.500 0.620846
370.600 0.654456
370.700 0.695997
370.800 0.716390
370.900 0.705060
371.000 0.664275
371.100 0.629909
371.200 0.610272
371.300 0.632175
371.400 0.687311
371.500 0.748867
371.600 0.792674
371.700 0.815332
371.800 0.799094
371.900 0.741314
372.000 0.658988
372.100 0.592523
372.200 0.567221
372.300 0.598187
372.400 0.675227
372.500 0.745846
372.600 0.799849
372.700 0.837991
372.800 0.856495
372.900 0.859517
373.000 0.839502
373.100 0.788897
373.200 0.703172
373.300 0.620091
373.400 0.550227
373.500 0.537387
373.600 0.580060
373.700 0.657100
373.800 0.743580
373.900 0.837991
374.000 0.891616
374.100 0.929381
374.200 0.936934
374.300 0.927492
374.400 0.899547
374.500 0.862538
374.600 0.811556
374.700 0.752644
374.800 0.675604
374.900 0.603097
375.000 0.565710
375.100 0.570242
375.200 0.619335
375.300 0.721677
375.400 0.812689
375.500 0.876888
375.600 0.921450
375.700 0.940710
375.800 0.953550
375.900 0.964502
376.000 0.975453
376.100 0.986405
376.200 0.986027
376.300 0.972810
376.400 0.954305
376.500 0.916918
376.600 0.868580
376.700 0.804003
376.800 0.710725
376.900 0.632931
377.000 0.561934
377.100 0.551360
377.200 0.595544
377.300 0.678625
377.400 0.748867
377.500 0.825529
377.600 0.884819
377.700 0.947130
377.800 1.009441
377.900 1.055514
378.000 1.104230
378.100 1.133308
378.200 1.151813
378.300 1.162387
378.400 1.166918
378.500 1.161254
378.600 1.151435
378.700 1.126511
378.800 1.103097
378.900 1.079305
379.000 1.047961
379.100 1.014728
379.200 0.960725
379.300 0.903701
379.400 0.830060
379.500 0.743202
379.600 0.659366
379.700 0.573263
379.800 0.539275
379.900 0.561556
380.000 0.637085
380.100 0.729607
380.200 0.830816
380.300 0.892749
380.400 0.961858
380.500 1.006042
380.600 1.047583
380.700 1.094789
380.800 1.131420
380.900 1.173716
381.000 1.200906
381.100 1.219033
381.200 1.218656
381.300 1.213369
381.400 1.207704
381.500 1.211480
381.600 1.225831
381.700 1.242447
381.800 1.243580
381.900 1.217523
382.000 1.196752
382.100 1.183535
382.200 1.179758
382.300 1.167674
382.400 1.132931
382.500 1.098565
382.600 1.059668
382.700 1.024547
382.800 0.977719
382.900 0.929003
383.000 0.881798
383.100 0.811556
383.200 0.743958
383.300 0.648414
383.400 0.569486
383.500 0.519637
383.600 0.516994
383.700 0.558157
383.800 0.633308
383.900 0.706193
384.000 0.783988
384.100 0.868202
384.200 0.938822
384.300 1.015106
384.400 1.064577
384.500 1.112160
384.600 1.154079
384.700 1.188066
384.800 1.218278
384.900 1.233006
385.000 1.248112
385.100 1.270015
385.200 1.298716
385.300 1.324018
385.400 1.330438
385.500 1.326284
385.600 1.318353
385.700 1.313444
385.800 1.313066
385.900 1.321375
386.000 1.337613
386.100 1.352719
386.200 1.360272
386.300 1.352719
386.400 1.341390
386.500 1.333082
386.600 1.335347
386.700 1.339124
386.800 1.341390
386.900 1.336858
387.000 1.317598
387.100 1.297205
387.200 1.266616
387.300 1.251888
387.400 1.242447
387.500 1.234894
387.600 1.219411
387.700 1.179003
387.800 1.145770
387.900 1.114048
388.000 1.092523
388.100 1.068353
388.200 1.024547
388.300 0.977341
388.400 0.908988
388.500 0.838746
388.600 0.753021
388.700 0.651813
388.800 0.579683
388.900 0.544184
389.000 0.572130
389.100 0.646903
389.200 0.733384
389.300 0.801360
389.400 0.871979
389.500 0.923338
389.600 0.986027
389.700 1.036254
389.800 1.077417
389.900 1.113671
390.000 1.138973
390.100 1.175227
390.200 1.206571
390.300 1.234894
390.400 1.251888
390.500 1.264350
390.600 1.286631
390.700 1.312311
390.800 1.344789
390.900 1.372734
391.000 1.389350
391.100 1.395015
391.200 1.391994
391.300 1.382553
391.400 1.375755
391.500 1.381798
391.600 1.397281
391.700 1.401435
391.800 1.402190
391.900 1.398414
392.000 1.398414
392.100 1.401057
392.200 1.402190
392.300 1.407477
392.400 1.408988
392.500 1.407477
392.600 1.396148
392.700 1.378399
392.800 1.349698
392.900 1.317598
393.000 1.270770
393.100 1.188444
393.200 1.077417
393.300 0.972810
393.400 0.958082
393.500 1.038897
393.600 1.151057
393.700 1.255665
393.800 1.327795
393.900 1.359139
394.000 1.372734
394.100 1.381420
394.200 1.382553
394.300 1.382931
394.400 1.381420
394.500 1.373489
394.600 1.367069
394.700 1.357628
394.800 1.345166
394.900 1.335725
395.000 1.328172
395.100 1.318731
395.200 1.308535
395.300 1.301737
395.400 1.288142
395.500 1.264728
395.600 1.240559
395.700 1.214502
395.800 1.196375
395.900 1.170317
396.000 1.132175
396.100 1.087613
396.200 1.030589
396.300 0.983761
396.400 0.919562
396.500 0.836858
396.600 0.733384
396.700 0.598943
396.800 0.500755
396.900 0.433157
397.000 0.439955
397.100 0.502266
397.200 0.600453
397.300 0.690710
397.400 0.786631
397.500 0.853474
397.600 0.924849
397.700 0.984139
397.800 1.037009
397.900 1.092900
398.000 1.125378
398.100 1.160121
398.200 1.187311
398.300 1.213746
398.400 1.242825
398.500 1.263973
398.600 1.285121
398.700 1.302870
398.800 1.323263
398.900 1.337991
399.000 1.348187
399.100 1.361782
399.200 1.368958
399.300 1.381042
399.400 1.388218
399.500 1.392372
399.600 1.392372
399.700 1.387840
399.800 1.387462
399.900 1.398792
400.000 1.408988
400.100 1.415030
400.200 1.415408
400.300 1.408610
400.400 1.402568
400.500 1.395770
400.600 1.399169
400.700 1.409366
400.800 1.422205
400.900 1.430891
401.000 1.435801
401.100 1.435423
401.200 1.433912
401.300 1.432779
401.400 1.432024
401.500 1.438822
401.600 1.446752
401.700 1.454683
401.800 1.463746
401.900 1.466390
402.000 1.466012
402.100 1.464502
402.200 1.461103
402.300 1.455816
402.400 1.446752
402.500 1.441088
402.600 1.439955
402.700 1.448640
402.800 1.452795
402.900 1.452795
403.000 1.447885
403.100 1.443731
403.200 1.443353
403.300 1.444109
403.400 1.449773
403.500 1.461858
403.600 1.475076
403.700 1.488293
403.800 1.486027
403.900 1.476586
404.000 1.465634
404.100 1.461103
404.200 1.466390
404.300 1.464502
404.400 1.444864
404.500 1.424849
404.600 1.416163
404.700 1.431269
404.800 1.450906
404.900 1.461480
405.000 1.462236
405.100 1.465634
405.200 1.464879
405.300 1.453550
405.400 1.440710
405.500 1.436556
405.600 1.438822
405.700 1.446375
405.800 1.448640
405.900 1.454683
406.000 1.459970
406.100 1.452039
406.200 1.431269
406.300 1.410498
406.400 1.402568
406.500 1.396526
406.600 1.395770
406.700 1.394637
406.800 1.392749
406.900 1.392372
407.000 1.379909
407.100 1.355363
407.200 1.342900
407.300 1.344789
407.400 1.351586
407.500 1.350831
407.600 1.333459
407.700 1.315710
407.800 1.306269
407.900 1.313066
408.000 1.321752
408.100 1.318353
408.200 1.312689
408.300 1.299471
408.400 1.288142
408.500 1.273036
408.600 1.259063
408.700 1.247734
408.800 1.231118
408.900 1.216012
409.000 1.188066
409.100 1.163142
409.200 1.140861
409.300 1.104230
409.400 1.071375
409.500 1.017749
409.600 0.966012
409.700 0.909743
409.800 0.839124
409.900 0.765106
410.000 0.664275
410.100 0.600076
410.200 0.577417
410.300 0.625378
410.400 0.702039
410.500 0.792296
410.600 0.851964
410.700 0.915030
410.800 0.963369
410.900 1.007931
411.000 1.056647
411.100 1.089124
411.200 1.126511
411.300 1.155211
411.400 1.182402
411.500 1.208837
411.600 1.228852
411.700 1.244713
411.800 1.254154
411.900 1.262840
412.000 1.270393
412.100 1.281344
412.200 1.293051
412.300 1.305891
412.400 1.321375
412.500 1.330816
412.600 1.334592
412.700 1.335725
412.800 1.335347
412.900 1.336858
413.000 1.334592
413.100 1.330438
413.200 1.331949
413.300 1.339502
413.400 1.356495
413.500 1.368958
413.600 1.377644
413.700 1.387462
413.800 1.395393
413.900 1.402946
414.000 1.401435
414.100 1.390861
414.200 1.378776
414.300 1.366692
414.400 1.368580
414.500 1.375378
414.600 1.387085
414.700 1.389728
414.800 1.391239
414.900 1.393127
415.000 1.397281
415.100 1.403323
415.200 1.402568
415.300 1.396526
415.400 1.389728
415.500 1.386707
