# Wavelength (nm)   F_lamA (normalized erg/cm2/s/A)9.100 0.000074
9.400 0.000101
9.600 0.000123
9.800 0.000148
10.000 0.000177
10.200 0.000210
10.400 0.000247
10.600 0.000288
10.800 0.000334
11.000 0.000385
11.400 0.000503
11.800 0.000642
12.100 0.000762
12.500 0.000942
12.700 0.001041
12.800 0.001093
13.100 0.001256
13.200 0.001314
13.400 0.001434
13.700 0.001624
14.000 0.001827
14.300 0.002042
14.700 0.002347
15.100 0.002671
15.500 0.003013
15.900 0.003371
16.200 0.003649
16.600 0.004030
17.000 0.004423
17.300 0.004724
17.700 0.005127
18.000 0.005436
18.200 0.005642
18.600 0.006059
19.100 0.006579
19.400 0.006888
19.800 0.007306
20.200 0.007713
20.500 0.008018
21.000 0.008515
21.600 0.009100
22.000 0.009480
22.300 0.009756
22.700 0.010117
23.000 0.064855
23.400 0.063730
24.000 0.062137
24.600 0.060825
25.200 0.059513
25.700 0.057638
26.000 0.057545
26.400 0.057310
26.900 0.055998
27.400 0.054639
27.900 0.053046
28.400 0.052015
29.000 0.050469
29.600 0.048594
30.100 0.046265
30.800 0.045281
31.800 0.043721
32.800 0.041565
33.800 0.039438
34.800 0.037432
35.700 0.035909
36.600 0.034489
37.500 0.032952
38.500 0.031167
39.500 0.029855
40.500 0.028529
41.400 0.027320
42.200 0.026237
43.000 0.025220
44.100 0.024049
45.100 0.022962
46.000 0.021973
47.000 0.020989
48.000 0.020103
49.000 0.019157
50.000 0.018402
50.600 0.018196
51.200 0.018552
52.000 0.017901
53.000 0.017146
54.000 0.016279
55.000 0.015647
56.000 0.015291
57.000 0.014733
58.000 0.014114
59.000 0.013641
60.000 0.013069
61.000 0.012559
62.000 0.012254
63.000 0.011795
64.000 0.011420
65.000 0.011003
65.800 0.010651
66.500 0.010459
67.500 0.010141
68.500 0.009719
69.500 0.009485
70.500 0.009082
71.600 0.008875
72.600 0.008604
73.500 0.008374
74.500 0.008097
75.500 0.007844
76.500 0.007573
77.500 0.007381
78.500 0.007160
79.500 0.006963
80.500 0.006771
81.500 0.006589
82.500 0.006415
83.500 0.006143
84.500 0.006064
85.500 0.005895
86.500 0.005759
87.500 0.005609
88.500 0.005464
89.500 0.005323
90.500 0.005169
91.500 0.006223
92.500 0.008515
93.500 0.010492
94.500 0.013233
95.500 0.014274
96.500 0.015703
97.500 0.010572
98.500 0.016003
99.500 0.018899
100.500 0.018299
101.500 0.014752
102.500 0.010286
103.500 0.013585
104.500 0.019180
105.500 0.040515
106.500 0.065089
107.500 0.094330
108.500 0.108763
109.500 0.112418
110.500 0.169353
111.500 0.179663
112.500 0.173243
113.500 0.173946
114.500 0.144236
115.500 0.111106
116.500 0.082943
117.500 0.046757
118.500 0.022662
119.500 0.012118
120.500 0.010244
121.500 0.007132
122.500 0.010136
123.500 0.011987
124.500 0.020853
125.500 0.046635
126.500 0.071603
127.500 0.128351
128.500 0.189784
129.500 0.234770
130.500 0.251406
131.500 0.311153
132.500 0.349203
133.500 0.373664
134.500 0.416448
135.500 0.410778
136.500 0.421321
137.500 0.446532
138.500 0.461715
139.500 0.481256
140.500 0.482193
141.500 0.485942
142.500 0.490628
143.500 0.471415
144.200 0.508903
144.700 0.509841
145.500 0.524367
146.500 0.501874
147.500 0.509841
148.500 0.514995
149.500 0.521087
150.500 0.534208
151.200 0.527648
151.700 0.530928
152.500 0.516870
153.500 0.508903
154.500 0.531865
155.500 0.517338
156.500 0.482662
157.500 0.515933
158.500 0.532802
159.500 0.551546
160.500 0.520619
161.500 0.531865
162.500 0.502343
163.500 0.519213
164.500 0.540769
165.500 0.480319
166.500 0.548735
167.200 0.500000
167.700 0.529053
168.500 0.553889
169.500 0.528116
170.500 0.526710
171.500 0.543112
172.500 0.534677
173.500 0.552484
174.500 0.539363
175.500 0.556232
176.500 0.518744
177.500 0.547798
178.500 0.542643
179.500 0.559513
180.500 0.562324
181.500 0.556701
182.500 0.542643
183.500 0.544986
184.500 0.519681
185.500 0.533739
186.500 0.540300
187.500 0.543112
188.500 0.543112
189.500 0.544049
190.500 0.533739
191.500 0.538425
192.500 0.541706
193.500 0.522024
194.500 0.548266
195.500 0.546392
196.700 0.552484
197.600 0.540769
198.400 0.538894
199.500 0.534677
200.500 0.522493
201.500 0.517338
202.500 0.507966
203.500 0.527648
204.500 0.534677
205.500 0.521556
206.500 0.519681
207.400 0.537488
207.800 0.543112
208.500 0.540769
209.500 0.529991
210.500 0.524836
211.500 0.529053
212.500 0.525773
213.500 0.501874
214.500 0.527179
215.500 0.522024
216.500 0.503749
217.500 0.503749
218.500 0.512652
219.500 0.534208
220.500 0.517338
221.500 0.493440
222.500 0.498126
223.500 0.532802
224.500 0.511715
225.500 0.492034
226.500 0.483599
227.500 0.507029
228.500 0.517338
229.500 0.496251
230.500 0.509841
231.500 0.505155
232.500 0.459419
233.500 0.485473
234.500 0.446157
235.500 0.497188
236.500 0.453515
237.500 0.480319
238.500 0.427132
239.500 0.459560
240.500 0.451687
241.500 0.459888
242.500 0.497657
243.500 0.485005
244.500 0.504217
245.500 0.500469
246.500 0.495314
247.500 0.476101
248.500 0.470947
249.500 0.467010
250.500 0.512184
251.300 0.465698
251.800 0.446251
252.500 0.433974
253.500 0.447001
254.500 0.453093
255.500 0.486879
256.500 0.478444
257.500 0.502812
258.500 0.500469
259.500 0.492502
260.500 0.474227
261.500 0.461809
262.500 0.491565
263.500 0.515933
264.500 0.570291
265.500 0.584349
266.500 0.546860
267.500 0.567010
268.500 0.577788
269.500 0.543580
270.500 0.556232
271.500 0.522962
272.500 0.524836
273.500 0.546860
274.500 0.475633
275.500 0.500469
276.500 0.534677
277.500 0.557638
278.500 0.524367
279.500 0.370947
280.500 0.411059
281.500 0.567010
282.500 0.586223
283.500 0.575914
284.500 0.558107
285.500 0.506560
286.500 0.574508
287.500 0.579194
288.500 0.581537
289.500 0.583880
291.000 0.621837
293.000 0.607779
295.000 0.602624
297.000 0.610122
299.000 0.614808
301.000 0.622774
303.000 0.624649
305.000 0.633083
307.000 0.626523
309.000 0.627460
311.000 0.627929
313.000 0.623711
315.000 0.622306
317.000 0.634021
319.000 0.611528
321.000 0.631209
323.000 0.613402
325.000 0.644799
327.000 0.668229
329.000 0.668229
331.000 0.670103
332.200 0.564667
332.300 0.537020
332.400 0.526710
332.500 0.542174
332.600 0.542174
332.700 0.537488
332.800 0.552484
332.900 0.569353
333.000 0.594658
333.100 0.599813
333.200 0.582943
333.300 0.569822
333.400 0.552484
333.500 0.557638
333.600 0.558575
333.700 0.556232
333.800 0.564667
333.900 0.564199
334.000 0.566542
334.100 0.574039
334.200 0.565136
334.300 0.571228
334.400 0.584817
334.500 0.587160
334.600 0.590440
334.700 0.565604
334.800 0.531396
334.900 0.507498
335.000 0.514995
335.100 0.526710
335.200 0.529991
335.300 0.539363
335.400 0.557638
335.500 0.579663
335.600 0.577320
335.700 0.553889
335.800 0.514995
335.900 0.480319
336.000 0.451546
336.100 0.464339
336.200 0.493440
336.300 0.532334
336.400 0.554827
336.500 0.546860
336.600 0.538894
336.700 0.537488
336.800 0.530928
336.900 0.522962
337.000 0.499063
337.100 0.480787
337.200 0.471415
337.300 0.485473
337.400 0.507498
337.500 0.543580
337.600 0.557638
337.700 0.556232
337.800 0.540769
337.900 0.532334
338.000 0.541237
338.100 0.551078
338.200 0.554827
338.300 0.551078
338.400 0.548735
338.500 0.559513
338.600 0.555295
338.700 0.539363
338.800 0.521087
338.900 0.528116
339.000 0.552484
339.100 0.574977
339.200 0.575445
339.300 0.560918
339.400 0.559044
339.500 0.567948
339.600 0.579194
339.700 0.589972
339.800 0.602624
339.900 0.602624
340.000 0.595595
340.100 0.582006
340.200 0.558107
340.300 0.545455
340.400 0.532802
340.500 0.545923
340.600 0.554827
340.700 0.558575
340.800 0.555295
340.900 0.547329
341.000 0.559513
341.100 0.558107
341.200 0.550609
341.300 0.538425
341.400 0.530459
341.500 0.548266
341.600 0.565136
341.700 0.570291
341.800 0.581537
341.900 0.589035
342.000 0.600281
342.100 0.603561
342.200 0.577788
342.300 0.545923
342.400 0.537488
342.500 0.550141
342.600 0.562324
342.700 0.580600
342.800 0.601218
342.900 0.615745
343.000 0.623243
343.100 0.599813
343.200 0.574508
343.300 0.562324
343.400 0.578725
343.500 0.603561
343.600 0.611059
343.700 0.599344
343.800 0.583880
343.900 0.573102
344.000 0.563261
344.100 0.542643
344.200 0.526710
344.300 0.521087
344.400 0.528116
344.500 0.544986
344.600 0.568885
344.700 0.594189
344.800 0.610590
344.900 0.623711
345.000 0.611528
345.100 0.588566
345.200 0.569822
345.300 0.564667
345.400 0.574977
345.500 0.585286
345.600 0.582943
345.700 0.578257
345.800 0.568885
345.900 0.561387
346.000 0.550141
346.100 0.550141
346.200 0.565136
346.300 0.571228
346.400 0.577320
346.500 0.565136
346.600 0.566542
346.700 0.581068
346.800 0.595127
346.900 0.604499
347.000 0.610122
347.100 0.609653
347.200 0.605904
347.300 0.579194
347.400 0.552484
347.500 0.544986
347.600 0.550141
347.700 0.576382
347.800 0.591378
347.900 0.599344
348.000 0.612465
348.100 0.613871
348.200 0.607779
348.300 0.601687
348.400 0.597001
348.500 0.602156
348.600 0.609653
348.700 0.607779
348.800 0.600281
348.900 0.589503
349.000 0.581537
349.100 0.587160
349.200 0.602156
349.300 0.604967
349.400 0.598875
349.500 0.589035
349.600 0.577788
349.700 0.583880
349.800 0.583411
349.900 0.582474
350.000 0.576382
350.100 0.567479
350.200 0.578257
350.300 0.588566
350.400 0.592315
350.500 0.585754
350.600 0.571228
350.700 0.559513
350.800 0.552015
350.900 0.566073
351.000 0.577788
351.100 0.582474
351.200 0.572634
351.300 0.556701
351.400 0.553889
351.500 0.564667
351.600 0.594189
351.700 0.616682
351.800 0.626054
351.900 0.609185
352.000 0.591846
352.100 0.586223
352.200 0.579194
352.300 0.570291
352.400 0.556232
352.500 0.545455
352.600 0.553421
352.700 0.567010
352.800 0.581068
352.900 0.592315
353.000 0.602156
353.100 0.613402
353.200 0.601218
353.300 0.558575
353.400 0.534677
353.500 0.528585
353.600 0.565136
353.700 0.603561
353.800 0.616214
353.900 0.629335
354.000 0.626054
354.100 0.619494
354.200 0.618088
354.300 0.633083
354.400 0.641987
354.500 0.633552
354.600 0.626992
354.700 0.620431
354.800 0.616682
354.900 0.616682
355.000 0.623711
355.100 0.637301
355.200 0.637301
355.300 0.615745
355.400 0.597470
355.500 0.598875
355.600 0.610122
355.700 0.627460
355.800 0.639644
355.900 0.646673
356.000 0.648079
356.100 0.645736
356.200 0.636832
356.300 0.621837
356.400 0.604499
356.500 0.587629
356.600 0.576851
356.700 0.578725
356.800 0.581068
356.900 0.582943
357.000 0.574508
357.100 0.560918
357.200 0.556701
357.300 0.555764
357.400 0.561856
357.500 0.575914
357.600 0.588097
357.700 0.590909
357.800 0.593721
357.900 0.592315
358.000 0.580131
358.100 0.564199
358.200 0.549672
358.300 0.548735
358.400 0.552015
358.500 0.544517
358.600 0.531396
358.700 0.523430
358.800 0.531396
358.900 0.557170
359.000 0.579663
359.100 0.593252
359.200 0.593252
359.300 0.587629
359.400 0.589503
359.500 0.599813
359.600 0.611996
359.700 0.618557
359.800 0.620431
359.900 0.621837
360.000 0.619494
360.100 0.601687
360.200 0.588566
360.300 0.583411
360.400 0.594189
360.500 0.606842
360.600 0.605904
360.700 0.598407
360.800 0.588566
360.900 0.585754
361.000 0.584817
361.100 0.586692
361.200 0.592315
361.300 0.598875
361.400 0.611059
361.500 0.633083
361.600 0.632146
361.700 0.619494
361.800 0.602624
361.900 0.590440
362.000 0.597938
362.100 0.609185
362.200 0.617151
362.300 0.621368
362.400 0.628397
362.500 0.645267
362.600 0.668697
362.700 0.687910
362.800 0.678069
362.900 0.654639
363.000 0.614808
363.100 0.593721
363.200 0.600281
363.300 0.622774
363.400 0.638238
363.500 0.632146
363.600 0.628866
363.700 0.637769
363.800 0.647142
363.900 0.653233
364.000 0.658388
364.100 0.655576
364.200 0.643861
364.300 0.632146
364.400 0.625586
364.500 0.624180
364.600 0.620431
364.700 0.617619
364.800 0.617151
364.900 0.615745
365.000 0.614808
365.100 0.618088
365.200 0.633552
365.300 0.646204
365.400 0.656982
365.500 0.669634
365.600 0.679007
365.700 0.683224
365.800 0.680412
365.900 0.673852
366.000 0.666823
366.100 0.656982
366.200 0.647610
366.300 0.644330
366.400 0.650890
366.500 0.660262
366.600 0.664948
366.700 0.664948
366.800 0.658857
366.900 0.648547
367.000 0.642455
367.100 0.644330
367.200 0.656045
367.300 0.664948
367.400 0.662137
367.500 0.655576
367.600 0.642455
367.700 0.627929
367.800 0.616214
367.900 0.618557
368.000 0.627460
368.100 0.632615
368.200 0.632615
368.300 0.627929
368.400 0.631209
368.500 0.630740
368.600 0.628397
368.700 0.625586
368.800 0.636364
368.900 0.657919
369.000 0.665886
369.100 0.663543
369.200 0.659325
369.300 0.662137
369.400 0.671509
369.500 0.674789
369.600 0.663543
369.700 0.645736
369.800 0.653233
369.900 0.683224
370.000 0.721181
370.100 0.723993
370.200 0.686036
370.300 0.631678
370.400 0.593252
370.500 0.589503
370.600 0.608247
370.700 0.641987
370.800 0.664011
370.900 0.660731
371.000 0.630272
371.100 0.604030
371.200 0.591846
371.300 0.617619
371.400 0.672915
371.500 0.719775
371.600 0.751640
371.700 0.764761
371.800 0.745080
371.900 0.689316
372.000 0.608716
372.100 0.544517
372.200 0.534208
372.300 0.574039
372.400 0.653702
372.500 0.708997
372.600 0.747423
372.700 0.764761
372.800 0.771790
372.900 0.773664
373.000 0.767573
373.100 0.733365
373.200 0.655576
373.300 0.574508
373.400 0.508903
373.500 0.497188
373.600 0.539363
373.700 0.608247
373.800 0.685567
373.900 0.763355
374.000 0.805061
374.100 0.829897
374.200 0.817245
374.300 0.797563
374.400 0.771790
374.500 0.743205
374.600 0.708060
374.700 0.663074
374.800 0.599344
374.900 0.543112
375.000 0.514527
375.100 0.538894
375.200 0.599813
375.300 0.694939
375.400 0.758669
375.500 0.802249
375.600 0.825679
375.700 0.822868
375.800 0.813964
375.900 0.805530
376.000 0.807873
376.100 0.829897
376.200 0.840206
376.300 0.834114
376.400 0.823336
376.500 0.797563
376.600 0.772727
376.700 0.728210
376.800 0.658857
376.900 0.601218
377.000 0.544049
377.100 0.547798
377.200 0.595127
377.300 0.670103
377.400 0.723993
377.500 0.771790
377.600 0.796157
377.700 0.831303
377.800 0.874883
377.900 0.912840
378.000 0.955951
378.100 0.973290
378.200 0.978444
378.300 0.973290
378.400 0.966261
378.500 0.955951
378.600 0.947516
378.700 0.927835
378.800 0.910028
378.900 0.895501
379.000 0.883318
379.100 0.870665
379.200 0.840675
379.300 0.802718
379.400 0.746485
379.500 0.680412
379.600 0.610122
379.700 0.538425
379.800 0.514995
379.900 0.542174
380.000 0.624180
380.100 0.715089
380.200 0.794752
380.300 0.830834
380.400 0.868322
380.500 0.883786
380.600 0.901593
380.700 0.925961
380.800 0.949391
380.900 0.980787
381.000 1.004686
381.100 1.019213
381.200 1.004217
381.300 0.985473
381.400 0.970009
381.500 0.969072
381.600 0.981724
381.700 1.002343
381.800 1.007498
381.900 0.978444
382.000 0.955483
382.100 0.942830
382.200 0.952202
382.300 0.952202
382.400 0.922680
382.500 0.892221
382.600 0.863636
382.700 0.840675
382.800 0.808341
382.900 0.779756
383.000 0.751172
383.100 0.706654
383.200 0.660731
383.300 0.584817
383.400 0.524836
383.500 0.486879
383.600 0.487816
383.700 0.523430
383.800 0.587160
383.900 0.643393
384.000 0.703374
384.100 0.762887
384.200 0.815370
384.300 0.873946
384.400 0.909091
384.500 0.940487
384.600 0.970009
384.700 0.995314
384.800 1.014995
384.900 1.016870
385.000 1.018744
385.100 1.034677
385.200 1.062324
385.300 1.088566
385.400 1.093721
385.500 1.085286
385.600 1.071228
385.700 1.060450
385.800 1.048735
385.900 1.046392
386.000 1.058107
386.100 1.076851
386.200 1.090440
386.300 1.099813
386.400 1.098407
386.500 1.090909
386.600 1.090440
386.700 1.093252
386.800 1.095127
386.900 1.089972
387.000 1.070759
387.100 1.052484
387.200 1.025773
387.300 1.011715
387.400 1.003749
387.500 1.004686
387.600 1.000000
387.700 0.974227
387.800 0.944236
387.900 0.916120
388.000 0.915183
388.100 0.907685
388.200 0.877226
388.300 0.846298
388.400 0.799906
388.500 0.751640
388.600 0.685098
388.700 0.602624
388.800 0.546860
388.900 0.524367
389.000 0.558107
389.100 0.629803
389.200 0.701500
389.300 0.750703
389.400 0.791471
389.500 0.818650
389.600 0.860825
389.700 0.891753
389.800 0.918463
389.900 0.938144
390.000 0.952202
390.100 0.979381
390.200 0.992971
390.300 1.006092
390.400 1.006560
390.500 1.008435
390.600 1.022962
390.700 1.050609
390.800 1.087160
390.900 1.113402
391.000 1.129335
391.100 1.134021
391.200 1.133552
391.300 1.126523
391.400 1.112465
391.500 1.112465
391.600 1.124180
391.700 1.125117
391.800 1.119963
391.900 1.111059
392.000 1.109185
392.100 1.113402
392.200 1.117151
392.300 1.123711
392.400 1.123243
392.500 1.118088
392.600 1.093721
392.700 1.063730
392.800 1.024367
392.900 0.976570
393.000 0.924086
393.100 0.829897
393.200 0.714152
393.300 0.610590
393.400 0.589503
393.500 0.664948
393.600 0.787254
393.700 0.901125
393.800 0.991565
393.900 1.040300
394.000 1.065604
394.100 1.087160
394.200 1.095127
394.300 1.089035
394.400 1.087160
394.500 1.089503
394.600 1.099344
394.700 1.101218
394.800 1.087629
394.900 1.074977
395.000 1.071696
395.100 1.066073
395.200 1.055295
395.300 1.059513
395.400 1.058107
395.500 1.049672
395.600 1.032802
395.700 1.007498
395.800 0.997188
395.900 0.981724
396.000 0.950328
396.100 0.912840
396.200 0.863168
396.300 0.823805
396.400 0.775539
396.500 0.694939
396.600 0.597470
396.700 0.469072
396.800 0.381209
396.900 0.330600
397.000 0.366542
397.100 0.446532
397.200 0.554358
397.300 0.642924
397.400 0.726804
397.500 0.782099
397.600 0.839269
397.700 0.883786
397.800 0.922680
397.900 0.962512
398.000 0.978444
398.100 0.993908
398.200 1.010309
398.300 1.029522
398.400 1.050141
398.500 1.067948
398.600 1.085286
398.700 1.103561
398.800 1.126054
398.900 1.130272
399.000 1.131678
399.100 1.138707
399.200 1.144799
399.300 1.159794
399.400 1.169634
399.500 1.170572
399.600 1.158388
399.700 1.145736
399.800 1.142455
399.900 1.158857
400.000 1.174789
400.100 1.186036
400.200 1.188379
400.300 1.184161
400.400 1.173383
400.500 1.162605
400.600 1.164480
400.700 1.176195
400.800 1.197282
400.900 1.210403
401.000 1.216026
401.100 1.216026
401.200 1.211809
401.300 1.209466
401.400 1.208529
401.500 1.214152
401.600 1.219775
401.700 1.225867
401.800 1.232427
401.900 1.235708
402.000 1.238988
402.100 1.236645
402.200 1.231022
402.300 1.225867
402.400 1.221181
402.500 1.223993
402.600 1.229147
402.700 1.240394
402.800 1.243205
402.900 1.236176
403.000 1.217432
403.100 1.203374
403.200 1.197282
403.300 1.199157
403.400 1.207591
403.500 1.224461
403.600 1.242737
403.700 1.263355
403.800 1.263355
403.900 1.253515
404.000 1.242737
404.100 1.236176
404.200 1.237113
404.300 1.230553
404.400 1.208529
404.500 1.181818
404.600 1.169166
404.700 1.188379
404.800 1.216963
404.900 1.238519
405.000 1.239456
405.100 1.238988
405.200 1.235708
405.300 1.227273
405.400 1.217432
405.500 1.214620
405.600 1.216026
405.700 1.219775
405.800 1.223055
405.900 1.234770
406.000 1.240394
406.100 1.234302
406.200 1.205717
406.300 1.179007
406.400 1.165886
406.500 1.163543
406.600 1.171040
406.700 1.173852
406.800 1.173383
406.900 1.171978
407.000 1.160262
407.100 1.135895
407.200 1.126523
407.300 1.132146
407.400 1.140581
407.500 1.140112
407.600 1.119025
407.700 1.099813
407.800 1.089972
407.900 1.100281
408.000 1.116214
408.100 1.125586
408.200 1.125586
408.300 1.116682
408.400 1.104967
408.500 1.089035
408.600 1.082474
408.700 1.079194
408.800 1.076382
408.900 1.070759
409.000 1.051546
409.100 1.038894
409.200 1.025773
409.300 1.000937
409.400 0.979381
409.500 0.941893
409.600 0.910028
409.700 0.871603
409.800 0.822868
409.900 0.764292
410.000 0.671509
410.100 0.611528
410.200 0.589035
410.300 0.646204
410.400 0.722587
410.500 0.805061
410.600 0.848641
410.700 0.890815
410.800 0.918932
410.900 0.945173
411.000 0.973758
411.100 0.991097
411.200 1.017807
411.300 1.037020
411.400 1.057638
411.500 1.079194
411.600 1.090909
411.700 1.096064
411.800 1.092784
411.900 1.091378
412.000 1.096532
412.100 1.106842
412.200 1.119494
412.300 1.127929
412.400 1.137769
412.500 1.146204
412.600 1.150890
412.700 1.153702
412.800 1.155576
412.900 1.157451
413.000 1.153702
413.100 1.147610
413.200 1.139175
413.300 1.142455
413.400 1.159794
413.500 1.172915
413.600 1.184630
413.700 1.194002
413.800 1.202437
413.900 1.213683
414.000 1.209934
414.100 1.196345
414.200 1.178069
414.300 1.163543
414.400 1.165417
414.500 1.173852
414.600 1.190253
414.700 1.193065
414.800 1.193065
414.900 1.195408
415.000 1.197282
415.100 1.200094
415.200 1.196813
415.300 1.189316
415.400 1.182287
415.500 1.180412
