# Wavelength (nm)   F_lamA (normalized erg/cm2/s/A)9.100 0.000001
9.400 0.000003
9.600 0.000005
9.800 0.000008
10.000 0.000012
10.200 0.000018
10.400 0.000027
10.600 0.000040
10.800 0.000058
11.000 0.000082
11.400 0.000161
11.800 0.000299
12.100 0.000461
12.500 0.000793
12.700 0.001025
12.800 0.001162
13.100 0.001668
13.200 0.001875
13.400 0.002352
13.700 0.003259
14.000 0.004443
14.300 0.005967
14.700 0.008652
15.100 0.012261
15.500 0.017009
15.900 0.023153
16.200 0.028831
16.600 0.038054
17.000 0.049466
17.300 0.059633
17.700 0.075616
18.000 0.089614
18.200 0.099959
18.600 0.123344
19.100 0.158046
19.400 0.181856
19.800 0.217707
20.200 0.258347
20.500 0.292009
21.000 0.354817
21.600 0.441434
22.000 0.506431
22.300 0.559113
22.700 0.634647
23.000 20.908593
23.400 23.029557
24.000 29.693487
24.600 40.558292
25.200 49.548440
25.700 38.409962
26.000 54.748221
26.400 69.033935
26.900 70.238095
27.400 71.332786
27.900 68.609743
28.400 72.112753
29.000 71.756979
29.600 66.037219
30.100 45.922277
30.800 57.006021
31.800 70.785441
32.800 70.963328
33.800 69.553914
34.800 68.267652
35.700 69.252874
36.600 70.032841
37.500 68.856048
38.500 65.188834
39.500 66.817187
40.500 66.885605
41.400 65.968801
42.200 64.285714
43.000 63.191024
44.100 63.232074
45.100 62.137384
46.000 60.413246
47.000 59.304871
48.000 58.743842
49.000 56.841817
50.000 56.636563
50.600 59.838533
51.200 69.280241
52.000 67.952928
53.000 66.666667
54.000 63.286809
55.000 62.301587
56.000 63.779420
57.000 62.862616
58.000 60.974275
59.000 60.509031
60.000 58.702791
61.000 56.937603
62.000 57.361795
63.000 56.061850
64.000 55.432403
65.000 54.091407
65.800 52.668309
66.500 52.709360
67.500 52.052545
68.500 50.150520
69.500 50.082102
70.500 48.125342
71.600 48.248495
72.600 47.468528
73.500 46.729611
74.500 45.648604
75.500 44.731801
76.500 43.527641
77.500 43.048714
78.500 42.172961
79.500 41.461412
80.500 40.845649
81.500 40.175151
82.500 39.559387
83.500 37.903667
84.500 38.081554
85.500 37.301587
86.500 36.836344
87.500 36.206897
88.500 35.536398
89.500 34.879584
90.500 34.031199
91.500 36.097427
92.500 52.955665
93.500 66.242474
94.500 82.731253
95.500 86.631089
96.500 95.402299
97.500 70.744390
98.500 91.885605
99.500 86.015326
100.500 88.669951
101.500 85.632184
102.500 64.696223
103.500 80.829228
104.500 82.238643
105.500 80.405036
106.500 77.011494
107.500 75.916804
108.500 71.018062
109.500 73.084291
110.500 70.853859
111.500 69.252874
112.500 66.529830
113.500 66.351943
114.500 64.559387
115.500 63.013136
116.500 61.644773
117.500 56.568144
118.500 58.538588
119.500 56.951286
120.500 54.625068
121.500 42.665572
122.500 52.394636
123.500 52.216749
124.500 51.081007
125.500 50.451560
126.500 49.384236
127.500 48.440066
128.500 47.441160
129.500 45.990695
130.500 45.114943
131.500 44.471812
132.500 43.363437
133.500 42.323481
134.500 41.694034
135.500 40.818281
136.500 39.860427
137.500 38.943623
138.500 38.259442
139.500 36.070060
140.500 34.865900
141.500 35.974275
142.500 35.112206
143.500 34.551177
144.200 34.031199
144.700 33.689108
145.500 33.100712
146.500 32.457581
147.500 31.841817
148.500 31.280788
149.500 30.623974
150.500 30.021894
151.200 29.597701
151.700 29.310345
152.500 28.831418
153.500 27.983032
154.500 26.847291
155.500 26.464149
156.500 26.436782
157.500 26.081007
158.500 25.670498
159.500 25.191571
160.500 24.493706
161.500 24.042146
162.500 23.604269
163.500 22.961138
164.500 21.962233
165.500 22.482211
166.500 22.112753
167.200 21.715928
167.700 21.743295
168.500 21.401204
169.500 21.004379
170.500 20.593870
171.500 20.073892
172.500 19.800219
173.500 19.581281
174.500 19.211823
175.500 18.869732
176.500 18.527641
177.500 18.240285
178.500 17.952928
179.500 17.651888
180.500 17.364532
181.500 17.049808
182.500 16.762452
183.500 16.488779
184.500 16.146689
185.500 15.845649
186.500 15.613027
187.500 15.394089
188.500 15.065681
189.500 14.778325
190.500 14.627805
191.500 14.340449
192.500 14.066776
193.500 13.916256
194.500 13.724685
195.500 13.423645
196.700 13.244390
197.600 13.085660
198.400 12.883142
199.500 12.616311
200.500 12.476738
201.500 12.301587
202.500 12.123700
203.500 11.912972
204.500 11.725506
205.500 9.978106
206.500 10.365353
207.400 11.242474
207.800 11.213738
208.500 11.117953
209.500 10.964696
210.500 10.815545
211.500 10.707444
212.500 10.547345
213.500 10.380405
214.500 10.216201
215.500 10.132731
216.500 9.902846
217.500 9.834428
218.500 9.614122
219.500 9.558019
220.500 9.414340
221.500 9.191297
222.500 9.139299
223.500 9.013410
224.500 8.883415
225.500 8.660372
226.500 8.627531
227.500 8.509852
228.500 8.389436
229.500 8.212917
230.500 8.056924
231.500 8.039135
232.500 7.822934
233.500 7.809250
234.500 7.694308
235.500 7.601259
236.500 7.486316
237.500 7.389163
238.500 7.174330
239.500 7.181171
240.500 7.085386
241.500 6.993706
242.500 6.911604
243.500 6.817187
244.500 6.729611
245.500 6.640668
246.500 6.551724
247.500 6.462781
248.500 6.379310
249.500 6.190476
250.500 6.211002
251.300 5.923645
251.800 6.098796
252.500 6.046798
253.500 5.971538
254.500 5.892173
255.500 5.826492
256.500 5.749863
257.500 5.682813
258.500 5.607553
259.500 5.533662
260.500 5.462507
261.500 5.389984
262.500 5.332512
263.500 5.273673
264.500 5.231253
265.500 5.168309
266.500 5.094417
267.500 5.035577
268.500 4.987685
269.500 4.908320
270.500 4.863164
271.500 4.797482
272.500 4.727696
273.500 4.614122
274.500 4.608648
275.500 4.563492
276.500 4.504652
277.500 4.475917
278.500 4.412972
279.500 4.315818
280.500 4.277504
281.500 4.273399
282.500 4.220033
283.500 4.176245
284.500 4.133826
285.500 4.079091
286.500 4.044882
287.500 3.999726
288.500 3.957307
289.500 3.910783
291.000 3.858785
293.000 3.772578
295.000 3.679529
297.000 3.613848
299.000 3.539956
301.000 3.453749
303.000 3.368911
305.000 3.288177
307.000 3.208812
309.000 3.134921
311.000 3.058292
313.000 2.985769
315.000 2.921456
317.000 2.855774
319.000 2.770936
321.000 2.705255
323.000 2.657362
325.000 2.606732
327.000 2.554735
329.000 2.502737
331.000 2.454844
332.200 2.378216
332.300 2.393268
332.400 2.390531
332.500 2.394636
332.600 2.375479
332.700 2.346743
332.800 2.333060
332.900 2.335796
333.000 2.346743
333.100 2.346743
333.200 2.337165
333.300 2.319376
333.400 2.305692
333.500 2.294745
333.600 2.278325
333.700 2.272852
333.800 2.276957
333.900 2.282430
334.000 2.267378
334.100 2.263273
334.200 2.267378
334.300 2.313903
334.400 2.352217
334.500 2.371374
334.600 2.380952
334.700 2.378216
334.800 2.346743
334.900 2.294745
335.000 2.216749
335.100 2.212644
335.200 2.234537
335.300 2.245484
335.400 2.242748
335.500 2.229064
335.600 2.219485
335.700 2.211275
335.800 2.197592
335.900 2.181171
336.000 2.178435
336.100 2.188013
336.200 2.211275
336.300 2.226327
336.400 2.230432
336.500 2.211275
336.600 2.186645
336.700 2.168856
336.800 2.153804
336.900 2.149699
337.000 2.157909
337.100 2.153804
337.200 2.141489
337.300 2.157909
337.400 2.179803
337.500 2.207170
337.600 2.216749
337.700 2.198960
337.800 2.183908
337.900 2.183908
338.000 2.200328
338.100 2.222222
338.200 2.230432
338.300 2.230432
338.400 2.219485
338.500 2.227696
338.600 2.241379
338.700 2.252326
338.800 2.256431
338.900 2.235906
339.000 2.223591
339.100 2.219485
339.200 2.231801
339.300 2.245484
339.400 2.275588
339.500 2.283799
339.600 2.271483
339.700 2.255063
339.800 2.238643
339.900 2.193487
340.000 2.163383
340.100 2.159278
340.200 2.138752
340.300 2.131910
340.400 2.140120
340.500 2.151067
340.600 2.144226
340.700 2.136015
340.800 2.140120
340.900 2.144226
341.000 2.156541
341.100 2.136015
341.200 2.133279
341.300 2.146962
341.400 2.164751
341.500 2.179803
341.600 2.181171
341.700 2.186645
341.800 2.190750
341.900 2.198960
342.000 2.200328
342.100 2.205802
342.200 2.203065
342.300 2.203065
342.400 2.192118
342.500 2.186645
342.600 2.188013
342.700 2.194855
342.800 2.211275
342.900 2.219485
343.000 2.205802
343.100 2.190750
343.200 2.178435
343.300 2.177066
343.400 2.185276
343.500 2.201697
343.600 2.211275
343.700 2.205802
343.800 2.186645
343.900 2.162014
344.000 2.126437
344.100 2.105911
344.200 2.107280
344.300 2.125068
344.400 2.144226
344.500 2.133279
344.600 2.130542
344.700 2.131910
344.800 2.152436
344.900 2.171593
345.000 2.129174
345.100 2.088123
345.200 2.071702
345.300 2.071702
345.400 2.084018
345.500 2.090859
345.600 2.096333
345.700 2.092228
345.800 2.079912
345.900 2.070334
346.000 2.062124
346.100 2.060755
346.200 2.079912
346.300 2.151067
346.400 2.125068
346.500 2.116858
346.600 2.120963
346.700 2.115490
346.800 2.114122
346.900 2.125068
347.000 2.130542
347.100 2.097701
347.200 2.092228
347.300 2.112753
347.400 2.101806
347.500 2.084018
347.600 2.059387
347.700 2.021073
347.800 1.989600
347.900 1.990969
348.000 2.022441
348.100 2.055282
348.200 2.048440
348.300 2.023810
348.400 2.025178
348.500 2.066229
348.600 2.086754
348.700 2.099070
348.800 2.119595
348.900 2.118227
349.000 2.094964
349.100 2.084018
349.200 2.101806
349.300 2.104543
349.400 2.101806
349.500 2.086754
349.600 2.049808
349.700 2.049808
349.800 2.067597
349.900 2.093596
350.000 2.084018
350.100 2.040230
350.200 2.038862
350.300 2.048440
350.400 2.038862
350.500 2.016968
350.600 2.004652
350.700 2.010126
350.800 2.022441
350.900 2.022441
351.000 2.015599
351.100 2.011494
351.200 2.006021
351.300 1.996442
351.400 2.004652
351.500 2.006021
351.600 2.025178
351.700 2.026546
351.800 2.027915
351.900 2.027915
352.000 2.019704
352.100 2.011494
352.200 2.006021
352.300 2.006021
352.400 2.016968
352.500 1.988232
352.600 1.985495
352.700 1.988232
352.800 2.003284
352.900 2.026546
353.000 2.033388
353.100 2.040230
353.200 2.049808
353.300 2.040230
353.400 2.016968
353.500 2.011494
353.600 2.016968
353.700 2.003284
353.800 2.004652
353.900 2.010126
354.000 2.029283
354.100 2.040230
354.200 2.032020
354.300 2.022441
354.400 2.026546
354.500 2.032020
354.600 2.025178
354.700 2.032020
354.800 2.044335
354.900 2.044335
355.000 2.027915
355.100 2.018336
355.200 2.022441
355.300 2.030651
355.400 2.029283
355.500 2.018336
355.600 2.007389
355.700 2.015599
355.800 2.025178
355.900 2.022441
356.000 2.018336
356.100 2.025178
356.200 2.033388
356.300 2.026546
356.400 2.018336
356.500 2.018336
356.600 2.010126
356.700 1.984127
356.800 1.988232
356.900 1.985495
357.000 1.959496
357.100 1.914340
357.200 1.904762
357.300 1.907499
357.400 1.902025
357.500 1.907499
357.600 1.918446
357.700 1.922551
357.800 1.926656
357.900 1.922551
358.000 1.928024
358.100 1.928024
358.200 1.914340
358.300 1.917077
358.400 1.925287
358.500 1.910235
358.600 1.884236
358.700 1.871921
358.800 1.866448
358.900 1.869184
359.000 1.886973
359.100 1.904762
359.200 1.911604
359.300 1.919814
359.400 1.921182
359.500 1.917077
359.600 1.912972
359.700 1.915709
359.800 1.923919
359.900 1.937603
360.000 1.956760
360.100 1.949918
360.200 1.941708
360.300 1.918446
360.400 1.906130
360.500 1.911604
360.600 1.914340
360.700 1.915709
360.800 1.925287
360.900 1.928024
361.000 1.917077
361.100 1.889710
361.200 1.892447
361.300 1.889710
361.400 1.877395
361.500 1.882868
361.600 1.908867
361.700 1.926656
361.800 1.926656
361.900 1.912972
362.000 1.892447
362.100 1.896552
362.200 1.923919
362.300 1.929392
362.400 1.919814
362.500 1.918446
362.600 1.932129
362.700 1.947181
362.800 1.941708
362.900 1.926656
363.000 1.921182
363.100 1.911604
363.200 1.891078
363.300 1.884236
363.400 1.910235
363.500 1.918446
363.600 1.886973
363.700 1.869184
363.800 1.876026
363.900 1.881500
364.000 1.886973
364.100 1.893815
364.200 1.888342
364.300 1.865079
364.400 1.840449
364.500 1.836344
364.600 1.843186
364.700 1.851396
364.800 1.860974
364.900 1.863711
365.000 1.860974
365.100 1.854132
365.200 1.854132
365.300 1.856869
365.400 1.856869
365.500 1.867816
365.600 1.873290
365.700 1.870553
365.800 1.870553
365.900 1.866448
366.000 1.854132
366.100 1.847291
366.200 1.845922
366.300 1.851396
366.400 1.856869
366.500 1.854132
366.600 1.850027
366.700 1.844554
366.800 1.841817
366.900 1.847291
367.000 1.844554
367.100 1.840449
367.200 1.841817
367.300 1.845922
367.400 1.841817
367.500 1.837712
367.600 1.843186
367.700 1.830870
367.800 1.819923
367.900 1.817187
368.000 1.822660
368.100 1.833607
368.200 1.844554
368.300 1.836344
368.400 1.819923
368.500 1.814450
368.600 1.808976
368.700 1.806240
368.800 1.821292
368.900 1.848659
369.000 1.860974
369.100 1.851396
369.200 1.848659
369.300 1.856869
369.400 1.855501
369.500 1.851396
369.600 1.837712
369.700 1.819923
369.800 1.821292
369.900 1.854132
370.000 1.903394
370.100 1.903394
370.200 1.863711
370.300 1.800766
370.400 1.748768
370.500 1.728243
370.600 1.752874
370.700 1.793924
370.800 1.819923
370.900 1.813082
371.000 1.781609
371.100 1.747400
371.200 1.722770
371.300 1.735085
371.400 1.791188
371.500 1.863711
371.600 1.893815
371.700 1.904762
371.800 1.903394
371.900 1.848659
372.000 1.752874
372.100 1.688560
372.200 1.655720
372.300 1.666667
372.400 1.732348
372.500 1.813082
372.600 1.848659
372.700 1.863711
372.800 1.873290
372.900 1.882868
373.000 1.886973
373.100 1.852764
373.200 1.777504
373.300 1.698139
373.400 1.624247
373.500 1.595512
373.600 1.624247
373.700 1.700876
373.800 1.770662
373.900 1.851396
374.000 1.902025
374.100 1.921182
374.200 1.906130
374.300 1.881500
374.400 1.866448
374.500 1.845922
374.600 1.796661
374.700 1.724138
374.800 1.655720
374.900 1.573618
375.000 1.543514
375.100 1.581828
375.200 1.668035
375.300 1.746032
375.400 1.810345
375.500 1.854132
375.600 1.878763
375.700 1.860974
375.800 1.810345
375.900 1.770662
376.000 1.754242
376.100 1.755610
376.200 1.806240
376.300 1.843186
376.400 1.845922
376.500 1.828134
376.600 1.793924
376.700 1.746032
376.800 1.678982
376.900 1.609195
377.000 1.544882
377.100 1.529830
377.200 1.583196
377.300 1.674877
377.400 1.740558
377.500 1.778872
377.600 1.800766
377.700 1.826765
377.800 1.862343
377.900 1.880131
378.000 1.895183
378.100 1.908867
378.200 1.914340
378.300 1.902025
378.400 1.892447
378.500 1.897920
378.600 1.884236
378.700 1.851396
378.800 1.828134
378.900 1.826765
379.000 1.828134
379.100 1.825397
379.200 1.821292
379.300 1.802135
379.400 1.747400
379.500 1.665298
379.600 1.576355
379.700 1.491516
379.800 1.451834
379.900 1.475096
380.000 1.584565
380.100 1.702244
380.200 1.784346
380.300 1.829502
380.400 1.855501
380.500 1.870553
380.600 1.851396
380.700 1.844554
380.800 1.855501
380.900 1.877395
381.000 1.903394
381.100 1.912972
381.200 1.880131
381.300 1.836344
381.400 1.802135
381.500 1.793924
381.600 1.804871
381.700 1.821292
381.800 1.826765
381.900 1.813082
382.000 1.788451
382.100 1.767926
382.200 1.796661
382.300 1.830870
382.400 1.814450
382.500 1.780241
382.600 1.756979
382.700 1.766557
382.800 1.773399
382.900 1.755610
383.000 1.728243
383.100 1.691297
383.200 1.625616
383.300 1.529830
383.400 1.427203
383.500 1.372469
383.600 1.375205
383.700 1.450465
383.800 1.543514
383.900 1.625616
384.000 1.674877
384.100 1.718664
384.200 1.752874
384.300 1.793924
384.400 1.833607
384.500 1.860974
384.600 1.855501
384.700 1.854132
384.800 1.847291
384.900 1.845922
385.000 1.830870
385.100 1.837712
385.200 1.852764
385.300 1.860974
385.400 1.859606
385.500 1.847291
385.600 1.826765
385.700 1.813082
385.800 1.813082
385.900 1.822660
386.000 1.825397
386.100 1.840449
386.200 1.845922
386.300 1.832239
386.400 1.829502
386.500 1.819923
386.600 1.814450
386.700 1.828134
386.800 1.850027
386.900 1.856869
387.000 1.840449
387.100 1.814450
387.200 1.780241
387.300 1.762452
387.400 1.774767
387.500 1.800766
387.600 1.814450
387.700 1.798030
387.800 1.774767
387.900 1.769294
388.000 1.788451
388.100 1.791188
388.200 1.767926
388.300 1.739190
388.400 1.717296
388.500 1.665298
388.600 1.576355
388.700 1.457307
388.800 1.362343
388.900 1.321155
389.000 1.375205
389.100 1.501095
389.200 1.621511
389.300 1.699507
389.400 1.732348
389.500 1.741927
389.600 1.747400
389.700 1.765189
389.800 1.776136
389.900 1.763820
390.000 1.756979
390.100 1.778872
390.200 1.803503
390.300 1.815818
390.400 1.815818
390.500 1.807608
390.600 1.788451
390.700 1.791188
390.800 1.829502
390.900 1.862343
391.000 1.867816
391.100 1.865079
391.200 1.854132
391.300 1.821292
391.400 1.799398
391.500 1.804871
391.600 1.814450
391.700 1.817187
391.800 1.810345
391.900 1.789819
392.000 1.780241
392.100 1.777504
392.200 1.766557
392.300 1.751505
392.400 1.751505
392.500 1.762452
392.600 1.751505
392.700 1.732348
392.800 1.696771
392.900 1.658456
393.000 1.610564
393.100 1.533935
393.200 1.382047
393.300 1.182950
393.400 1.174740
393.500 1.322113
393.600 1.442255
393.700 1.529830
393.800 1.600985
393.900 1.658456
394.000 1.711823
394.100 1.741927
394.200 1.750137
394.300 1.747400
394.400 1.747400
394.500 1.733716
394.600 1.740558
394.700 1.756979
394.800 1.758347
394.900 1.744663
395.000 1.736453
395.100 1.732348
395.200 1.732348
395.300 1.740558
395.400 1.752874
395.500 1.756979
395.600 1.741927
395.700 1.718664
395.800 1.710454
395.900 1.722770
396.000 1.726875
396.100 1.711823
396.200 1.672140
396.300 1.624247
396.400 1.573618
396.500 1.509305
396.600 1.408046
396.700 1.211138
396.800 1.010126
396.900 0.935276
397.000 0.983443
397.100 1.101806
397.200 1.260536
397.300 1.392994
397.400 1.494253
397.500 1.572250
397.600 1.633826
397.700 1.663930
397.800 1.678982
397.900 1.703612
398.000 1.714559
398.100 1.714559
398.200 1.700876
398.300 1.691297
398.400 1.707718
398.500 1.732348
398.600 1.715928
398.700 1.676245
398.800 1.718664
398.900 1.736453
399.000 1.746032
399.100 1.756979
399.200 1.767926
399.300 1.777504
399.400 1.770662
399.500 1.756979
399.600 1.729611
399.700 1.714559
399.800 1.714559
399.900 1.722770
400.000 1.725506
400.100 1.730980
400.200 1.732348
400.300 1.732348
400.400 1.733716
400.500 1.721401
400.600 1.717296
400.700 1.725506
400.800 1.746032
400.900 1.752874
401.000 1.746032
401.100 1.744663
401.200 1.739190
401.300 1.736453
401.400 1.744663
401.500 1.754242
401.600 1.763820
401.700 1.774767
401.800 1.784346
401.900 1.792556
402.000 1.793924
402.100 1.777504
402.200 1.758347
402.300 1.726875
402.400 1.685824
402.500 1.654351
402.600 1.663930
402.700 1.696771
402.800 1.726875
402.900 1.735085
403.000 1.737822
403.100 1.729611
403.200 1.728243
403.300 1.732348
403.400 1.739190
403.500 1.748768
403.600 1.759715
403.700 1.776136
403.800 1.788451
403.900 1.785714
404.000 1.782978
404.100 1.781609
404.200 1.773399
404.300 1.766557
404.400 1.752874
404.500 1.732348
404.600 1.713191
404.700 1.733716
404.800 1.759715
404.900 1.769294
405.000 1.769294
405.100 1.770662
405.200 1.772031
405.300 1.761084
405.400 1.755610
405.500 1.761084
405.600 1.769294
405.700 1.774767
405.800 1.782978
405.900 1.792556
406.000 1.782978
406.100 1.751505
406.200 1.743295
406.300 1.736453
406.400 1.695402
406.500 1.633826
406.600 1.668035
406.700 1.700876
406.800 1.703612
406.900 1.700876
407.000 1.694034
407.100 1.680350
407.200 1.674877
407.300 1.672140
407.400 1.688560
407.500 1.689929
407.600 1.662562
407.700 1.635194
407.800 1.626984
407.900 1.658456
408.000 1.696771
408.100 1.717296
408.200 1.720033
408.300 1.713191
408.400 1.696771
408.500 1.685824
408.600 1.680350
408.700 1.694034
408.800 1.714559
408.900 1.726875
409.000 1.722770
409.100 1.715928
409.200 1.713191
409.300 1.692666
409.400 1.673508
409.500 1.647510
409.600 1.616037
409.700 1.577723
409.800 1.516147
409.900 1.442255
410.000 1.344691
410.100 1.244663
410.200 1.195539
410.300 1.252463
410.400 1.386152
410.500 1.521620
410.600 1.592775
410.700 1.618774
410.800 1.632458
410.900 1.632458
411.000 1.632458
411.100 1.642036
411.200 1.661193
411.300 1.680350
411.400 1.702244
411.500 1.720033
411.600 1.726875
411.700 1.713191
411.800 1.687192
411.900 1.665298
412.000 1.663930
412.100 1.666667
412.200 1.658456
412.300 1.657088
412.400 1.672140
412.500 1.691297
412.600 1.698139
412.700 1.681719
412.800 1.652983
412.900 1.647510
413.000 1.654351
413.100 1.658456
413.200 1.652983
413.300 1.652983
413.400 1.666667
413.500 1.684455
413.600 1.695402
413.700 1.706349
413.800 1.717296
413.900 1.725506
414.000 1.726875
414.100 1.722770
414.200 1.698139
414.300 1.663930
