# Wavelength (nm)   F_lamA (normalized erg/cm2/s/A)9.100 0.000006
9.400 0.000013
9.600 0.000021
9.800 0.000034
10.000 0.000053
10.200 0.000082
10.400 0.000125
10.600 0.000186
10.800 0.000274
11.000 0.000396
11.400 0.000793
11.800 0.001507
12.100 0.002362
12.500 0.004143
12.700 0.005403
12.800 0.006148
13.100 0.008940
13.200 0.010083
13.400 0.012749
13.700 0.017858
14.000 0.024597
14.300 0.033357
14.700 0.048963
15.100 0.070154
15.500 0.098351
15.900 0.135148
16.200 0.169445
16.600 0.225572
17.000 0.295620
17.300 0.358397
17.700 0.457528
18.000 0.544955
18.200 0.609860
18.600 0.757049
19.100 0.976592
19.400 1.128746
19.800 1.357688
20.200 1.618195
20.500 1.835432
21.000 2.241532
21.600 2.803689
22.000 3.227523
22.300 3.571555
22.700 4.066324
23.000 128.852633
23.400 140.574570
24.000 165.117929
24.600 198.616776
25.200 233.374712
25.700 217.946444
26.000 259.797836
26.400 303.422593
26.900 307.323994
27.400 311.934740
27.900 302.358574
28.400 315.836141
29.000 314.594786
29.600 300.230537
30.100 249.866998
30.800 280.900869
31.800 312.998759
32.800 313.176095
33.800 306.437312
34.800 300.407874
35.700 304.486611
36.600 309.097358
37.500 304.309275
38.500 289.945026
39.500 295.087782
40.500 295.087782
41.400 290.477035
42.200 283.383579
43.000 277.708814
44.100 276.644795
45.100 271.502039
46.000 263.344565
47.000 257.492463
48.000 253.768399
49.000 245.078915
50.000 242.773541
50.600 240.645505
51.200 254.832417
52.000 249.334988
53.000 243.305551
54.000 232.133357
55.000 225.749246
56.000 228.586629
57.000 224.330555
58.000 217.946444
59.000 214.222380
60.000 207.483596
61.000 200.390140
62.000 200.035467
63.000 194.360702
64.000 191.345983
65.000 186.025891
65.800 181.060472
66.500 180.173790
67.500 176.556127
68.500 170.083348
69.500 168.363185
70.500 161.730803
71.600 160.436248
72.600 157.102323
73.500 153.910268
74.500 149.831530
75.500 146.036531
76.500 141.478986
77.500 139.350949
78.500 135.662351
79.500 132.878170
80.500 130.324526
81.500 127.558078
82.500 124.844831
83.500 119.897145
84.500 119.205533
85.500 116.208548
86.500 114.133712
87.500 111.704203
88.500 109.150559
89.500 106.667849
90.500 103.848200
91.500 117.999645
92.500 141.603121
93.500 161.287462
94.500 185.316545
95.500 191.345983
96.500 204.291541
97.500 163.184962
98.500 196.134066
99.500 185.139209
100.500 188.331264
101.500 182.124490
102.500 147.614825
103.500 172.477390
104.500 174.729562
105.500 170.810427
106.500 163.982976
107.500 161.624401
108.500 152.402908
109.500 155.080688
110.500 150.399007
111.500 146.940947
112.500 141.585387
113.500 140.610037
114.500 136.797304
115.500 133.427913
116.500 130.253591
117.500 121.404504
118.500 123.780812
119.500 120.269551
120.500 115.712006
121.500 96.134066
122.500 110.516049
123.500 109.948572
124.500 107.749601
125.500 106.224508
126.500 103.936868
127.500 101.950700
128.500 99.840397
129.500 96.967547
130.500 94.945912
131.500 93.474020
132.500 91.133180
133.500 89.058344
134.500 87.568718
135.500 85.582550
136.500 83.454513
137.500 81.468345
138.500 80.067388
139.500 75.704912
140.500 72.725661
141.500 75.261571
142.500 73.381805
143.500 72.246852
144.200 71.058698
144.700 70.331619
145.500 69.072531
146.500 67.742508
147.500 66.447952
148.500 65.312999
149.500 63.912041
150.500 62.635219
151.200 61.748537
151.700 61.092392
152.500 60.099308
153.500 58.343678
154.500 55.931903
155.500 55.116155
156.500 55.027487
157.500 54.264941
158.500 53.325058
159.500 52.349707
160.500 50.948750
161.500 49.973400
162.500 49.033517
163.500 47.863096
164.500 46.071999
165.500 46.674942
166.500 45.894662
167.200 45.007980
167.700 45.061181
168.500 44.351835
169.500 43.536088
170.500 42.667140
171.500 41.603121
172.500 40.982444
173.500 40.521369
174.500 39.741089
175.500 39.014010
176.500 38.322398
177.500 37.701720
178.500 37.081043
179.500 36.424898
180.500 35.821954
181.500 35.165810
182.500 34.562866
183.500 33.995389
184.500 33.303777
185.500 32.683100
186.500 32.186558
187.500 31.690016
188.500 31.051605
189.500 30.484128
190.500 30.111722
191.500 29.526512
192.500 28.941302
193.500 28.622096
194.500 28.214222
195.500 27.611279
196.700 27.185671
197.600 26.848732
198.400 26.440858
199.500 25.908849
200.500 25.571910
201.500 25.199503
202.500 24.809363
203.500 24.383756
204.500 23.993616
205.500 20.978897
206.500 21.475439
207.400 22.929597
207.800 22.894130
208.500 22.681326
209.500 22.379855
210.500 22.042915
211.500 21.794644
212.500 21.457705
213.500 21.120766
214.500 20.783827
215.500 20.588757
216.500 20.127682
217.500 19.968079
218.500 19.524738
219.500 19.382869
220.500 19.081397
221.500 18.655790
222.500 18.513921
223.500 18.247916
224.500 17.981912
225.500 17.558078
226.500 17.462316
227.500 17.212272
228.500 16.955134
229.500 16.628835
230.500 16.302536
231.500 16.229828
232.500 15.866288
233.500 15.768753
234.500 15.538216
235.500 15.328959
236.500 15.105515
237.500 14.896258
238.500 14.497251
239.500 14.474198
240.500 14.275581
241.500 14.078737
242.500 13.894308
243.500 13.697464
244.500 13.513034
245.500 13.325058
246.500 13.144174
247.500 12.968611
248.500 12.794822
249.500 12.440149
250.500 12.433056
251.300 11.924100
251.800 12.209612
252.500 12.108530
253.500 11.954247
254.500 11.792871
255.500 11.645682
256.500 11.493173
257.500 11.345983
258.500 11.198794
259.500 11.046285
260.500 10.909736
261.500 10.764320
262.500 10.631318
263.500 10.492995
264.500 10.370633
265.500 10.235857
266.500 10.101082
267.500 9.969853
268.500 9.858131
269.500 9.718035
270.500 9.609860
271.500 9.487498
272.500 9.350949
273.500 9.120411
274.500 9.131052
275.500 9.019330
276.500 8.895194
277.500 8.806526
278.500 8.696577
279.500 8.568895
280.500 8.476680
281.500 8.386239
282.500 8.267423
283.500 8.171662
284.500 8.084767
285.500 7.985458
286.500 7.893243
287.500 7.797482
288.500 7.705267
289.500 7.614825
291.000 7.481823
293.000 7.306260
295.000 7.125377
297.000 6.971094
299.000 6.809718
301.000 6.635928
303.000 6.467459
305.000 6.304309
307.000 6.146480
309.000 5.995744
311.000 5.846781
313.000 5.703139
315.000 5.564816
317.000 5.431814
319.000 5.289945
321.000 5.140982
323.000 5.055861
325.000 4.937046
327.000 4.821777
329.000 4.711828
331.000 4.605426
332.200 4.392623
332.300 4.413903
332.400 4.390849
332.500 4.371342
332.600 4.341195
332.700 4.321688
332.800 4.303955
332.900 4.305728
333.000 4.307501
333.100 4.302181
333.200 4.287994
333.300 4.263167
333.400 4.247207
333.500 4.240113
333.600 4.222380
333.700 4.208193
333.800 4.197553
333.900 4.178046
334.000 4.158539
334.100 4.170952
334.200 4.185139
334.300 4.252527
334.400 4.286221
334.500 4.314595
334.600 4.341195
334.700 4.351835
334.800 4.307501
334.900 4.236567
335.000 4.098244
335.100 4.089378
335.200 4.114205
335.300 4.123071
335.400 4.115978
335.500 4.098244
335.600 4.110658
335.700 4.131938
335.800 4.147899
335.900 4.154992
336.000 4.162085
336.100 4.160312
336.200 4.156765
336.300 4.128392
336.400 4.105338
336.500 4.066324
336.600 4.048590
336.700 4.034403
336.800 4.032630
336.900 4.041497
337.000 4.071644
337.100 4.069871
337.200 4.037950
337.300 4.030857
337.400 4.039723
337.500 4.062777
337.600 4.066324
337.700 4.032630
337.800 4.023763
337.900 4.027310
338.000 4.059230
338.100 4.084057
338.200 4.089378
338.300 4.084057
338.400 4.069871
338.500 4.089378
338.600 4.114205
338.700 4.130165
338.800 4.128392
338.900 4.089378
339.000 4.073417
339.100 4.064550
339.200 4.085831
339.300 4.101791
339.400 4.144352
339.500 4.140805
339.600 4.103564
339.700 4.050364
339.800 4.007803
339.900 3.933322
340.000 3.915588
340.100 3.935095
340.200 3.926228
340.300 3.915588
340.400 3.926228
340.500 3.929775
340.600 3.917361
340.700 3.920908
340.800 3.931548
340.900 3.942188
341.000 3.942188
341.100 3.896081
341.200 3.892534
341.300 3.915588
341.400 3.945735
341.500 3.965242
341.600 3.963469
341.700 3.956375
341.800 3.951055
341.900 3.947508
342.000 3.945735
342.100 3.951055
342.200 3.952829
342.300 3.958149
342.400 3.952829
342.500 3.940415
342.600 3.942188
342.700 3.943962
342.800 3.959922
342.900 3.952829
343.000 3.922681
343.100 3.919135
343.200 3.920908
343.300 3.928001
343.400 3.931548
343.500 3.942188
343.600 3.942188
343.700 3.936868
343.800 3.917361
343.900 3.897854
344.000 3.849973
344.100 3.835786
344.200 3.837560
344.300 3.865934
344.400 3.881894
344.500 3.849973
344.600 3.835786
344.700 3.828693
344.800 3.851747
344.900 3.871254
345.000 3.798546
345.100 3.757758
345.200 3.740025
345.300 3.743572
345.400 3.754212
345.500 3.750665
345.600 3.748892
345.700 3.743572
345.800 3.738251
345.900 3.732931
346.000 3.729385
346.100 3.727611
346.200 3.747118
346.300 3.837560
346.400 3.791452
346.500 3.784359
346.600 3.798546
346.700 3.789679
346.800 3.771945
346.900 3.770172
347.000 3.777265
347.100 3.729385
347.200 3.720518
347.300 3.761305
347.400 3.761305
347.500 3.743572
347.600 3.713424
347.700 3.646037
347.800 3.583969
347.900 3.569782
348.000 3.603476
348.100 3.647810
348.200 3.630076
348.300 3.587516
348.400 3.594609
348.500 3.658450
348.600 3.683277
348.700 3.701011
348.800 3.743572
348.900 3.754212
349.000 3.729385
349.100 3.720518
349.200 3.750665
349.300 3.748892
349.400 3.743572
349.500 3.729385
349.600 3.693917
349.700 3.697464
349.800 3.711651
349.900 3.711651
350.000 3.679730
350.100 3.621209
350.200 3.621209
350.300 3.635396
350.400 3.610569
350.500 3.569782
350.600 3.559142
350.700 3.575102
350.800 3.592836
350.900 3.591062
351.000 3.589289
351.100 3.591062
351.200 3.582195
351.300 3.569782
351.400 3.580422
351.500 3.583969
351.600 3.591062
351.700 3.566235
351.800 3.557368
351.900 3.564462
352.000 3.569782
352.100 3.566235
352.200 3.555595
352.300 3.552048
352.400 3.578649
352.500 3.546728
352.600 3.543181
352.700 3.544955
352.800 3.553822
352.900 3.564462
353.000 3.571555
353.100 3.589289
353.200 3.601702
353.300 3.575102
353.400 3.534315
353.500 3.525448
353.600 3.530768
353.700 3.502394
353.800 3.497074
353.900 3.493527
354.000 3.516581
354.100 3.534315
354.200 3.530768
354.300 3.516581
354.400 3.516581
354.500 3.518354
354.600 3.507714
354.700 3.520128
354.800 3.539635
354.900 3.537861
355.000 3.516581
355.100 3.500621
355.200 3.514808
355.300 3.534315
355.400 3.532541
355.500 3.511261
355.600 3.488207
355.700 3.489980
355.800 3.500621
355.900 3.498847
356.000 3.488207
356.100 3.498847
356.200 3.511261
356.300 3.495301
356.400 3.477567
356.500 3.498847
356.600 3.520128
356.700 3.491754
356.800 3.491754
356.900 3.472247
357.000 3.429686
357.100 3.365845
357.200 3.367618
357.300 3.374712
357.400 3.364072
357.500 3.360525
357.600 3.374712
357.700 3.376485
357.800 3.365845
357.900 3.349885
358.000 3.356978
358.100 3.371165
358.200 3.367618
358.300 3.360525
358.400 3.358752
358.500 3.360525
358.600 3.367618
358.700 3.364072
358.800 3.346338
358.900 3.333924
359.000 3.351658
359.100 3.353431
359.200 3.335698
359.300 3.332151
359.400 3.333924
359.500 3.325058
359.600 3.314417
359.700 3.316191
359.800 3.321511
359.900 3.333924
360.000 3.360525
360.100 3.356978
360.200 3.356978
360.300 3.339245
360.400 3.323284
360.500 3.321511
360.600 3.319738
360.700 3.317964
360.800 3.328604
360.900 3.341018
361.000 3.335698
361.100 3.298457
361.200 3.300231
361.300 3.298457
361.400 3.278950
361.500 3.273630
361.600 3.282497
361.700 3.291364
361.800 3.305551
361.900 3.312644
362.000 3.284270
362.100 3.275403
362.200 3.303777
362.300 3.303777
362.400 3.286044
362.500 3.278950
362.600 3.293137
362.700 3.294910
362.800 3.273630
362.900 3.259443
363.000 3.275403
363.100 3.294910
363.200 3.293137
363.300 3.286044
363.400 3.303777
363.500 3.289590
363.600 3.227523
363.700 3.202696
363.800 3.200922
363.900 3.195602
364.000 3.199149
364.100 3.220429
364.200 3.232843
364.300 3.211562
364.400 3.176095
364.500 3.165455
364.600 3.172548
364.700 3.179642
364.800 3.184962
364.900 3.190282
365.000 3.186735
365.100 3.170775
365.200 3.163682
365.300 3.154815
365.400 3.147721
365.500 3.156588
365.600 3.158361
365.700 3.149495
365.800 3.145948
365.900 3.142401
366.000 3.131761
366.100 3.126441
366.200 3.124667
366.300 3.135308
366.400 3.140628
366.500 3.133534
366.600 3.126441
366.700 3.112254
366.800 3.105160
366.900 3.110481
367.000 3.119347
367.100 3.117574
367.200 3.105160
367.300 3.092747
367.400 3.087427
367.500 3.085653
367.600 3.101614
367.700 3.085653
367.800 3.078560
367.900 3.078560
368.000 3.076787
368.100 3.080333
368.200 3.082107
368.300 3.075013
368.400 3.064373
368.500 3.064373
368.600 3.067920
368.700 3.060826
368.800 3.064373
368.900 3.071467
369.000 3.062600
369.100 3.050186
369.200 3.059053
369.300 3.067920
369.400 3.043093
369.500 3.027132
369.600 3.023586
369.700 3.014719
369.800 3.007625
369.900 3.018266
370.000 3.039546
370.100 3.025359
370.200 2.986345
370.300 2.957971
370.400 2.943784
370.500 2.947331
370.600 2.961518
370.700 2.977478
370.800 2.973932
370.900 2.965065
371.000 2.945558
371.100 2.920731
371.200 2.902997
371.300 2.902997
371.400 2.931371
371.500 2.966838
371.600 2.979252
371.700 2.963291
371.800 2.961518
371.900 2.917184
372.000 2.863983
372.100 2.840929
372.200 2.846249
372.300 2.872850
372.400 2.890583
372.500 2.887037
372.600 2.888810
372.700 2.913637
372.800 2.933144
372.900 2.936691
373.000 2.933144
373.100 2.901224
373.200 2.862210
373.300 2.810782
373.400 2.769995
373.500 2.764675
373.600 2.791275
373.700 2.828516
373.800 2.878170
373.900 2.922504
374.000 2.949104
374.100 2.961518
374.200 2.950878
374.300 2.920731
374.400 2.911864
374.500 2.901224
374.600 2.872850
374.700 2.823196
374.800 2.757581
374.900 2.695513
375.000 2.679553
375.100 2.709700
375.200 2.745168
375.300 2.771768
375.400 2.794822
375.500 2.828516
375.600 2.844476
375.700 2.837383
375.800 2.830289
375.900 2.819649
376.000 2.809009
376.100 2.805462
376.200 2.858663
376.300 2.879943
376.400 2.860436
376.500 2.824969
376.600 2.785955
376.700 2.739847
376.800 2.686647
376.900 2.624579
377.000 2.562511
377.100 2.555418
377.200 2.606845
377.300 2.672460
377.400 2.727434
377.500 2.769995
377.600 2.791275
377.700 2.807235
377.800 2.809009
377.900 2.805462
378.000 2.807235
378.100 2.814329
378.200 2.826742
378.300 2.821422
378.400 2.810782
378.500 2.832062
378.600 2.842703
378.700 2.832062
378.800 2.816102
378.900 2.794822
379.000 2.768221
379.100 2.748714
379.200 2.736301
379.300 2.725661
379.400 2.684873
379.500 2.631672
379.600 2.546551
379.700 2.468523
379.800 2.445469
379.900 2.491577
380.000 2.576698
380.100 2.654726
380.200 2.688420
380.300 2.715020
380.400 2.734527
380.500 2.762901
380.600 2.752261
380.700 2.757581
380.800 2.768221
380.900 2.771768
381.000 2.778862
381.100 2.782408
381.200 2.769995
381.300 2.768221
381.400 2.773541
381.500 2.768221
381.600 2.754034
381.700 2.757581
381.800 2.748714
381.900 2.743394
382.000 2.730981
382.100 2.723887
382.200 2.730981
382.300 2.739847
382.400 2.738074
382.500 2.732754
382.600 2.713247
382.700 2.720340
382.800 2.711474
382.900 2.679553
383.000 2.638766
383.100 2.596205
383.200 2.541231
383.300 2.464976
383.400 2.379855
383.500 2.317787
383.600 2.331974
383.700 2.408228
383.800 2.489803
383.900 2.551871
384.000 2.599752
384.100 2.624579
384.200 2.647633
384.300 2.679553
384.400 2.707927
384.500 2.730981
384.600 2.715020
384.700 2.707927
384.800 2.702607
384.900 2.716794
385.000 2.715020
385.100 2.723887
385.200 2.729207
385.300 2.720340
385.400 2.707927
385.500 2.697287
385.600 2.684873
385.700 2.668913
385.800 2.663593
385.900 2.691967
386.000 2.706154
386.100 2.718567
386.200 2.699060
386.300 2.670686
386.400 2.649406
386.500 2.640539
386.600 2.644086
386.700 2.661819
386.800 2.670686
386.900 2.661819
387.000 2.645859
387.100 2.638766
387.200 2.635219
387.300 2.638766
387.400 2.642312
387.500 2.640539
387.600 2.631672
387.700 2.621032
387.800 2.624579
387.900 2.626352
388.000 2.629899
388.100 2.608619
388.200 2.582018
388.300 2.557191
388.400 2.532364
388.500 2.482710
388.600 2.397588
388.700 2.292960
388.800 2.190105
388.900 2.159957
389.000 2.227345
389.100 2.356801
389.200 2.440149
389.300 2.511084
389.400 2.541231
389.500 2.566058
389.600 2.589112
389.700 2.599752
389.800 2.606845
389.900 2.610392
390.000 2.617485
390.100 2.624579
390.200 2.626352
390.300 2.631672
390.400 2.635219
390.500 2.635219
390.600 2.626352
390.700 2.628126
390.800 2.647633
390.900 2.644086
391.000 2.622805
391.100 2.626352
391.200 2.638766
391.300 2.629899
391.400 2.631672
391.500 2.638766
391.600 2.635219
391.700 2.631672
391.800 2.619259
391.900 2.601525
392.000 2.592658
392.100 2.585565
392.200 2.566058
392.300 2.535911
392.400 2.532364
392.500 2.557191
392.600 2.569605
392.700 2.580245
392.800 2.583791
392.900 2.582018
393.000 2.578471
393.100 2.541231
393.200 2.399362
393.300 2.179464
393.400 2.207838
393.500 2.427735
393.600 2.537684
393.700 2.578471
393.800 2.580245
393.900 2.571378
394.000 2.571378
394.100 2.576698
394.200 2.576698
394.300 2.560738
394.400 2.550098
394.500 2.521724
394.600 2.509310
394.700 2.512857
394.800 2.516404
394.900 2.518177
395.000 2.516404
395.100 2.507537
395.200 2.496897
395.300 2.495123
395.400 2.489803
395.500 2.479163
395.600 2.468523
395.700 2.457883
395.800 2.452563
395.900 2.454336
396.000 2.456109
396.100 2.450789
396.200 2.436602
396.300 2.410002
396.400 2.374534
396.500 2.344387
396.600 2.268133
396.700 2.083703
396.800 1.879766
396.900 1.837205
397.000 1.911686
397.100 2.023408
397.200 2.133357
397.300 2.232665
397.400 2.287640
397.500 2.326654
397.600 2.358574
397.700 2.365668
397.800 2.367441
397.900 2.386948
398.000 2.394041
398.100 2.406455
398.200 2.411775
398.300 2.402908
398.400 2.395815
398.500 2.395815
398.600 2.356801
398.700 2.301827
398.800 2.381628
398.900 2.406455
399.000 2.415322
399.100 2.420642
399.200 2.420642
399.300 2.417095
399.400 2.410002
399.500 2.411775
399.600 2.404682
399.700 2.402908
399.800 2.404682
399.900 2.404682
400.000 2.386948
400.100 2.379855
400.200 2.383401
400.300 2.383401
400.400 2.381628
400.500 2.386948
400.600 2.386948
400.700 2.383401
400.800 2.385175
400.900 2.383401
401.000 2.376308
401.100 2.381628
401.200 2.385175
401.300 2.385175
401.400 2.383401
401.500 2.379855
401.600 2.372761
401.700 2.378081
401.800 2.386948
401.900 2.390495
402.000 2.383401
402.100 2.370988
402.200 2.369214
402.300 2.351481
402.400 2.312467
402.500 2.275226
402.600 2.262813
402.700 2.291186
402.800 2.328427
402.900 2.355027
403.000 2.370988
403.100 2.370988
403.200 2.367441
403.300 2.365668
403.400 2.365668
403.500 2.370988
403.600 2.372761
403.700 2.365668
403.800 2.358574
403.900 2.349707
404.000 2.356801
404.100 2.370988
404.200 2.369214
404.300 2.362121
404.400 2.358574
404.500 2.355027
404.600 2.351481
404.700 2.355027
404.800 2.360348
404.900 2.360348
405.000 2.351481
405.100 2.349707
405.200 2.362121
405.300 2.358574
405.400 2.360348
405.500 2.362121
405.600 2.356801
405.700 2.355027
405.800 2.356801
405.900 2.355027
406.000 2.353254
406.100 2.340841
406.200 2.331974
406.300 2.333747
406.400 2.285866
406.500 2.177691
406.600 2.214932
406.700 2.269906
406.800 2.273453
406.900 2.264586
407.000 2.257492
407.100 2.261039
407.200 2.271679
407.300 2.259266
407.400 2.257492
407.500 2.255719
407.600 2.250399
407.700 2.250399
407.800 2.255719
407.900 2.262813
408.000 2.266359
408.100 2.261039
408.200 2.255719
408.300 2.255719
408.400 2.241532
408.500 2.239759
408.600 2.237985
408.700 2.246852
408.800 2.253946
408.900 2.250399
409.000 2.232665
409.100 2.220252
409.200 2.216705
409.300 2.200745
409.400 2.179464
409.500 2.142224
409.600 2.112077
409.700 2.080156
409.800 2.023408
409.900 1.941834
410.000 1.854939
410.100 1.784004
410.200 1.772832
410.300 1.840752
410.400 1.959567
410.500 2.048236
410.600 2.096116
410.700 2.119170
410.800 2.142224
410.900 2.154637
411.000 2.165278
411.100 2.174144
411.200 2.181238
411.300 2.183011
411.400 2.198971
411.500 2.216705
411.600 2.223799
411.700 2.213158
411.800 2.190105
411.900 2.184785
412.000 2.193651
412.100 2.193651
412.200 2.191878
412.300 2.193651
412.400 2.193651
412.500 2.195425
412.600 2.197198
412.700 2.193651
412.800 2.183011
412.900 2.186558
413.000 2.191878
413.100 2.193651
413.200 2.190105
413.300 2.181238
