# Wavelength (nm)   F_lamA (normalized erg/cm2/s/A)9.100 0.000038
9.400 0.000056
9.600 0.000070
9.800 0.000088
10.000 0.000109
10.200 0.000134
10.400 0.000163
10.600 0.000197
10.800 0.000236
11.000 0.000280
11.400 0.000388
11.800 0.000522
12.100 0.000644
12.500 0.000835
12.700 0.000943
12.800 0.001001
13.100 0.001189
13.200 0.001256
13.400 0.001399
13.700 0.001632
14.000 0.001888
14.300 0.002168
14.700 0.002579
15.100 0.003031
15.500 0.003526
15.900 0.004062
16.200 0.004490
16.600 0.005095
17.000 0.005734
17.300 0.006238
17.700 0.006935
18.000 0.007477
18.200 0.007848
18.600 0.008607
19.100 0.009587
19.400 0.010189
19.800 0.011007
20.200 0.011838
20.500 0.012465
21.000 0.013525
21.600 0.014802
22.000 0.015657
22.300 0.016295
22.700 0.017150
23.000 0.145490
23.400 0.144044
24.000 0.142719
24.600 0.142117
25.200 0.141033
25.700 0.134530
26.000 0.137179
26.400 0.136938
26.900 0.134530
27.400 0.132241
27.900 0.128869
28.400 0.127183
29.000 0.124052
29.600 0.119547
30.100 0.111851
30.800 0.110069
31.800 0.109069
32.800 0.104601
33.800 0.099795
34.800 0.095279
35.700 0.091894
36.600 0.088715
37.500 0.085126
38.500 0.080609
39.500 0.077875
40.500 0.074865
41.400 0.071986
42.200 0.069300
43.000 0.066904
44.100 0.064170
45.100 0.061520
46.000 0.059015
47.000 0.056582
48.000 0.054438
49.000 0.052029
50.000 0.050211
50.600 0.050006
51.200 0.051487
52.000 0.049825
53.000 0.047947
54.000 0.045562
55.000 0.043936
56.000 0.043069
57.000 0.041611
58.000 0.039937
59.000 0.038745
60.000 0.037215
61.000 0.035758
62.000 0.034975
63.000 0.033747
64.000 0.032747
65.000 0.031615
65.800 0.030640
66.500 0.030158
67.500 0.029303
68.500 0.028122
69.500 0.027520
70.500 0.026400
71.600 0.025834
72.600 0.025111
73.500 0.024473
74.500 0.023714
75.500 0.023016
76.500 0.022257
77.500 0.021739
78.500 0.021125
79.500 0.020571
80.500 0.020053
81.500 0.019547
82.500 0.019065
83.500 0.018307
84.500 0.018090
85.500 0.017596
86.500 0.017223
87.500 0.016801
88.500 0.016392
89.500 0.015994
90.500 0.015549
91.500 0.018343
92.500 0.026304
93.500 0.033964
94.500 0.045393
95.500 0.049151
96.500 0.054836
97.500 0.036577
98.500 0.054450
99.500 0.051945
100.500 0.053716
101.500 0.050970
102.500 0.034445
103.500 0.047152
104.500 0.051656
105.500 0.050729
106.500 0.048019
107.500 0.048488
108.500 0.045405
109.500 0.047272
110.500 0.045947
111.500 0.045321
112.500 0.043286
113.500 0.043743
114.500 0.042153
115.500 0.041696
116.500 0.041106
117.500 0.037179
118.500 0.038986
119.500 0.036734
120.500 0.033783
121.500 0.023004
122.500 0.032940
123.500 0.034927
124.500 0.034927
125.500 0.034710
126.500 0.034036
127.500 0.034132
128.500 0.034036
129.500 0.033361
130.500 0.034301
131.500 0.036710
132.500 0.038841
133.500 0.041069
134.500 0.045478
135.500 0.047380
136.500 0.051656
137.500 0.055510
138.500 0.058979
139.500 0.062339
140.500 0.064170
141.500 0.072034
142.500 0.072492
143.500 0.073877
144.200 0.082175
144.700 0.078622
145.500 0.088330
146.500 0.082958
147.500 0.089245
148.500 0.092533
149.500 0.095929
150.500 0.103396
151.200 0.104890
151.700 0.100434
152.500 0.107395
153.500 0.112935
154.500 0.114790
155.500 0.124052
156.500 0.119451
157.500 0.137661
158.500 0.149584
159.500 0.157413
160.500 0.142960
161.500 0.161628
162.500 0.159460
163.500 0.167771
164.500 0.194990
165.500 0.165844
166.500 0.217632
167.200 0.196555
167.700 0.220764
168.500 0.235457
169.500 0.229194
170.500 0.235337
171.500 0.251355
172.500 0.251114
173.500 0.264964
174.500 0.261592
175.500 0.274720
176.500 0.253282
177.500 0.272432
178.500 0.275443
179.500 0.290618
180.500 0.309888
181.500 0.310972
182.500 0.301096
183.500 0.309647
184.500 0.288811
185.500 0.303505
186.500 0.314946
187.500 0.315910
188.500 0.318680
189.500 0.325906
190.500 0.319282
191.500 0.330001
192.500 0.336625
193.500 0.320848
194.500 0.345176
195.500 0.346742
196.700 0.357943
197.600 0.349151
198.400 0.349030
199.500 0.349753
200.500 0.339998
201.500 0.344695
202.500 0.330603
203.500 0.356739
204.500 0.367578
205.500 0.361074
206.500 0.360231
207.400 0.380826
207.800 0.382031
208.500 0.380585
209.500 0.373720
210.500 0.369625
211.500 0.378779
212.500 0.379261
213.500 0.361436
214.500 0.383958
215.500 0.380706
216.500 0.367217
217.500 0.369625
218.500 0.381549
219.500 0.402626
220.500 0.392268
221.500 0.374082
222.500 0.385042
223.500 0.415874
224.500 0.398290
225.500 0.382512
226.500 0.372998
227.500 0.396001
228.500 0.405877
229.500 0.388775
230.500 0.405396
231.500 0.406239
232.500 0.372516
233.500 0.396242
234.500 0.360593
235.500 0.413104
236.500 0.374804
237.500 0.400819
238.500 0.350596
239.500 0.385282
240.500 0.380344
241.500 0.385764
242.500 0.423461
243.500 0.413585
244.500 0.429002
245.500 0.427315
246.500 0.426111
247.500 0.409009
248.500 0.403228
249.500 0.400939
250.500 0.445381
251.300 0.406720
251.800 0.384439
252.500 0.374202
253.500 0.387089
254.500 0.392147
255.500 0.427918
256.500 0.425750
257.500 0.451403
258.500 0.452607
259.500 0.447670
260.500 0.433458
261.500 0.420571
262.500 0.452005
263.500 0.469228
264.500 0.520294
265.500 0.531013
266.500 0.500542
267.500 0.520173
268.500 0.533060
269.500 0.503673
270.500 0.513670
271.500 0.484162
272.500 0.487655
273.500 0.508130
274.500 0.448151
275.500 0.471998
276.500 0.506684
277.500 0.526436
278.500 0.505360
279.500 0.346983
280.500 0.393231
281.500 0.548958
282.500 0.555582
283.500 0.547272
284.500 0.531856
285.500 0.481633
286.500 0.544141
287.500 0.547874
288.500 0.557028
289.500 0.562206
291.000 0.592316
293.000 0.583765
295.000 0.577984
297.000 0.583163
299.000 0.591112
301.000 0.595327
303.000 0.600385
305.000 0.608937
307.000 0.606407
309.000 0.607371
311.000 0.609177
313.000 0.609780
315.000 0.611466
317.000 0.621342
319.000 0.601831
321.000 0.618933
323.000 0.606769
325.000 0.632783
327.000 0.654703
329.000 0.656991
331.000 0.659521
332.200 0.564736
332.300 0.530531
332.400 0.522582
332.500 0.535710
332.600 0.539323
332.700 0.532579
332.800 0.536673
332.900 0.544020
333.000 0.562929
333.100 0.577382
333.200 0.573166
333.300 0.574732
333.400 0.560159
333.500 0.551126
333.600 0.542334
333.700 0.537878
333.800 0.551126
333.900 0.558473
334.000 0.561002
334.100 0.562929
334.200 0.556064
334.300 0.566301
334.400 0.580995
334.500 0.583042
334.600 0.579188
334.700 0.551849
334.800 0.523907
334.900 0.507527
335.000 0.522944
335.100 0.534385
335.200 0.530049
335.300 0.533422
335.400 0.548476
335.500 0.574371
335.600 0.574852
335.700 0.553294
335.800 0.507889
335.900 0.465735
336.000 0.438878
336.100 0.451644
336.200 0.481151
336.300 0.520294
336.400 0.546309
336.500 0.538841
336.600 0.530170
336.700 0.526677
336.800 0.523064
336.900 0.520294
337.000 0.489943
337.100 0.462483
337.200 0.454775
337.300 0.474648
337.400 0.506203
337.500 0.540046
337.600 0.553896
337.700 0.551849
337.800 0.536071
337.900 0.522823
338.000 0.525232
338.100 0.532940
338.200 0.534987
338.300 0.537035
338.400 0.544020
338.500 0.557871
338.600 0.554498
338.700 0.532579
338.800 0.515597
338.900 0.532579
339.000 0.554739
339.100 0.571119
339.200 0.560520
339.300 0.541732
339.400 0.543418
339.500 0.555462
339.600 0.576057
339.700 0.589426
339.800 0.599542
339.900 0.601831
340.000 0.597374
340.100 0.586053
340.200 0.563772
340.300 0.554378
340.400 0.544261
340.500 0.553174
340.600 0.558714
340.700 0.554378
340.800 0.539684
340.900 0.536192
341.000 0.554257
341.100 0.553776
341.200 0.548115
341.300 0.534385
341.400 0.531615
341.500 0.552210
341.600 0.568710
341.700 0.577261
341.800 0.583042
341.900 0.585210
342.000 0.589426
342.100 0.589426
342.200 0.570998
342.300 0.548838
342.400 0.542936
342.500 0.550765
342.600 0.558473
342.700 0.571360
342.800 0.592677
342.900 0.612309
343.000 0.623148
343.100 0.603035
343.200 0.580152
343.300 0.565820
343.400 0.577863
343.500 0.601831
343.600 0.606287
343.700 0.593039
343.800 0.574491
343.900 0.558955
344.000 0.549320
344.100 0.533542
344.200 0.523425
344.300 0.521137
344.400 0.528604
344.500 0.543177
344.600 0.565820
344.700 0.595447
344.800 0.613393
344.900 0.622667
345.000 0.603276
345.100 0.574852
345.200 0.554257
345.300 0.551247
345.400 0.562206
345.500 0.573166
345.600 0.576659
345.700 0.578586
345.800 0.574852
345.900 0.567747
346.000 0.551849
346.100 0.542575
346.200 0.554860
346.300 0.562809
346.400 0.570998
346.500 0.561243
346.600 0.560039
346.700 0.575936
346.800 0.597013
346.900 0.612791
347.000 0.619053
347.100 0.612188
347.200 0.601469
347.300 0.574009
347.400 0.550885
347.500 0.542695
347.600 0.545465
347.700 0.571721
347.800 0.593641
347.900 0.605323
348.000 0.615922
348.100 0.614718
348.200 0.607612
348.300 0.602312
348.400 0.598699
348.500 0.605685
348.600 0.618812
348.700 0.617969
348.800 0.607732
348.900 0.589546
349.000 0.574852
349.100 0.583644
349.200 0.600747
349.300 0.601710
349.400 0.595809
349.500 0.585210
349.600 0.573166
349.700 0.577382
349.800 0.574612
349.900 0.576057
350.000 0.575093
350.100 0.572323
350.200 0.582199
350.300 0.587739
350.400 0.589787
350.500 0.581838
350.600 0.572564
350.700 0.567747
350.800 0.561243
350.900 0.568228
351.000 0.572564
351.100 0.573407
351.200 0.566181
351.300 0.557389
351.400 0.560159
351.500 0.572564
351.600 0.600626
351.700 0.621101
351.800 0.623991
351.900 0.602794
352.000 0.584969
352.100 0.576539
352.200 0.571239
352.300 0.562929
352.400 0.548597
352.500 0.540166
352.600 0.549079
352.700 0.563531
352.800 0.580634
352.900 0.595207
353.000 0.607130
353.100 0.617729
353.200 0.611345
353.300 0.584006
353.400 0.566663
353.500 0.560882
353.600 0.585090
353.700 0.618331
353.800 0.633386
353.900 0.640491
354.000 0.635313
354.100 0.629170
354.200 0.627002
354.300 0.637240
354.400 0.646634
354.500 0.642178
354.600 0.635674
354.700 0.626761
354.800 0.621462
354.900 0.624112
355.000 0.634831
355.100 0.647959
355.200 0.643743
355.300 0.624353
355.400 0.609177
355.500 0.610743
355.600 0.621583
355.700 0.638685
355.800 0.650126
355.900 0.651813
356.000 0.648079
356.100 0.645068
356.200 0.638564
356.300 0.624955
356.400 0.603878
356.500 0.584488
356.600 0.578225
356.700 0.582801
356.800 0.585812
356.900 0.584006
357.000 0.572082
357.100 0.558714
357.200 0.555221
357.300 0.556787
357.400 0.563411
357.500 0.574973
357.600 0.586896
357.700 0.595327
357.800 0.601951
357.900 0.597615
358.000 0.583644
358.100 0.568349
358.200 0.558112
358.300 0.560159
358.400 0.556666
358.500 0.542695
358.600 0.523184
358.700 0.513670
358.800 0.526677
358.900 0.555703
359.000 0.581236
359.100 0.592798
359.200 0.589907
359.300 0.586415
359.400 0.591232
359.500 0.607250
359.600 0.621703
359.700 0.628086
359.800 0.626280
359.900 0.623991
360.000 0.622546
360.100 0.608334
360.200 0.597615
360.300 0.593400
360.400 0.601951
360.500 0.608455
360.600 0.604480
360.700 0.596772
360.800 0.588823
360.900 0.588101
361.000 0.587498
361.100 0.590389
361.200 0.598820
361.300 0.605685
361.400 0.615440
361.500 0.638564
361.600 0.640371
361.700 0.628086
361.800 0.607130
361.900 0.588342
362.000 0.597495
362.100 0.613272
362.200 0.625316
362.300 0.631579
362.400 0.637480
362.500 0.654703
362.600 0.676623
362.700 0.695291
362.800 0.688546
362.900 0.662532
363.000 0.622305
363.100 0.600024
363.200 0.606407
363.300 0.627845
363.400 0.638926
363.500 0.633747
363.600 0.631579
363.700 0.644105
363.800 0.658918
363.900 0.666867
364.000 0.668192
364.100 0.661568
364.200 0.648922
364.300 0.638685
364.400 0.632302
364.500 0.628929
364.600 0.625798
364.700 0.624594
364.800 0.624834
364.900 0.622185
365.000 0.621101
365.100 0.623630
365.200 0.637480
365.300 0.651933
365.400 0.667590
365.500 0.682524
365.600 0.692641
365.700 0.696616
365.800 0.693966
365.900 0.691557
366.000 0.690112
366.100 0.679152
366.200 0.667710
366.300 0.660845
366.400 0.663495
366.500 0.671685
366.600 0.674214
366.700 0.673010
366.800 0.664820
366.900 0.655546
367.000 0.653619
367.100 0.659280
367.200 0.669517
367.300 0.676743
367.400 0.675298
367.500 0.669758
367.600 0.653980
367.700 0.634951
367.800 0.623148
367.900 0.625557
368.000 0.634108
368.100 0.638323
368.200 0.640732
368.300 0.640612
368.400 0.642057
368.500 0.633386
368.600 0.627243
368.700 0.629893
368.800 0.650367
368.900 0.674455
369.000 0.676864
369.100 0.672167
369.200 0.667108
369.300 0.671564
369.400 0.680116
369.500 0.685656
369.600 0.679754
369.700 0.662893
369.800 0.673130
369.900 0.697097
370.000 0.726123
370.100 0.726484
370.200 0.685776
370.300 0.636035
370.400 0.598820
370.500 0.594725
370.600 0.609418
370.700 0.637480
370.800 0.656871
370.900 0.656871
371.000 0.632904
371.100 0.608455
371.200 0.602312
371.300 0.628207
371.400 0.680356
371.500 0.722389
371.600 0.750090
371.700 0.757678
371.800 0.738528
371.900 0.683488
372.000 0.607371
372.100 0.546670
372.200 0.540648
372.300 0.577863
372.400 0.655064
372.500 0.706973
372.600 0.737083
372.700 0.749247
372.800 0.756835
372.900 0.759846
373.000 0.755269
373.100 0.723835
373.200 0.649886
373.300 0.571962
373.400 0.513188
373.500 0.500060
373.600 0.541250
373.700 0.607491
373.800 0.674937
373.900 0.742382
374.000 0.782488
374.100 0.800795
374.200 0.787667
374.300 0.769360
374.400 0.743466
374.500 0.715404
374.600 0.686378
374.700 0.650367
374.800 0.597856
374.900 0.553174
375.000 0.529447
375.100 0.555221
375.200 0.607732
375.300 0.695773
375.400 0.754787
375.500 0.791642
375.600 0.804890
375.700 0.792846
375.800 0.778393
375.900 0.771528
376.000 0.772131
376.100 0.789955
376.200 0.802963
376.300 0.801277
376.400 0.792003
376.500 0.769481
376.600 0.746236
376.700 0.711911
376.800 0.654462
376.900 0.600506
377.000 0.550403
377.100 0.557991
377.200 0.605444
377.300 0.673130
377.400 0.724678
377.500 0.763339
377.600 0.781766
377.700 0.809105
377.800 0.842587
377.900 0.875346
378.000 0.910635
378.100 0.924967
378.200 0.926171
378.300 0.919547
378.400 0.913887
378.500 0.901963
378.600 0.890762
378.700 0.868240
378.800 0.851740
378.900 0.842828
379.000 0.837288
379.100 0.829218
379.200 0.805974
379.300 0.775021
379.400 0.727087
379.500 0.668554
379.600 0.605564
379.700 0.542334
379.800 0.518849
379.900 0.551006
380.000 0.629772
380.100 0.709864
380.200 0.778514
380.300 0.811393
380.400 0.842105
380.500 0.852343
380.600 0.861857
380.700 0.878116
380.800 0.901120
380.900 0.930146
381.000 0.949898
381.100 0.956040
381.200 0.934963
381.300 0.911116
381.400 0.891846
381.500 0.891605
381.600 0.907022
381.700 0.928460
381.800 0.936168
381.900 0.912441
382.000 0.889317
382.100 0.878959
382.200 0.886427
382.300 0.884018
382.400 0.856558
382.500 0.829218
382.600 0.806335
382.700 0.788871
382.800 0.764663
382.900 0.745755
383.000 0.725641
383.100 0.688426
383.200 0.647116
383.300 0.573769
383.400 0.515958
383.500 0.484042
383.600 0.494159
383.700 0.529447
383.800 0.588462
383.900 0.636637
384.000 0.685897
384.100 0.736722
384.200 0.783693
384.300 0.835842
384.400 0.868361
384.500 0.891846
384.600 0.912682
384.700 0.934482
384.800 0.947971
384.900 0.946284
385.000 0.944839
385.100 0.959051
385.200 0.985668
385.300 1.008792
385.400 1.011080
385.500 0.999639
385.600 0.984223
385.700 0.972901
385.800 0.959653
385.900 0.956642
386.000 0.969650
386.100 0.990606
386.200 1.004938
386.300 1.012887
386.400 1.009515
386.500 1.002529
386.600 1.002409
386.700 1.006263
386.800 1.010117
386.900 1.007226
387.000 0.991449
387.100 0.972901
387.200 0.945201
387.300 0.932193
387.400 0.928098
387.500 0.933759
387.600 0.929544
387.700 0.902565
387.800 0.877755
387.900 0.860171
388.000 0.863664
388.100 0.861375
388.200 0.839576
388.300 0.815729
388.400 0.776105
388.500 0.731061
388.600 0.668674
388.700 0.594002
388.800 0.539323
388.900 0.526436
389.000 0.561966
389.100 0.633867
389.200 0.698061
389.300 0.737926
389.400 0.768277
389.500 0.792364
389.600 0.827894
389.700 0.852945
389.800 0.873058
389.900 0.884259
390.000 0.895700
390.100 0.915934
390.200 0.924485
390.300 0.934000
390.400 0.929423
390.500 0.929182
390.600 0.941587
390.700 0.967602
390.800 1.002168
390.900 1.028183
391.000 1.042515
391.100 1.045285
391.200 1.044080
391.300 1.036372
391.400 1.024329
391.500 1.021799
391.600 1.026978
391.700 1.027701
391.800 1.020956
391.900 1.011562
392.000 1.008912
392.100 1.009033
392.200 1.012405
392.300 1.019872
392.400 1.019872
392.500 1.014814
392.600 0.990124
392.700 0.957365
392.800 0.914007
392.900 0.861375
393.000 0.796218
393.100 0.691076
393.200 0.570035
393.300 0.477297
393.400 0.459232
393.500 0.546670
393.600 0.671926
393.700 0.787788
393.800 0.881368
393.900 0.935445
394.000 0.967120
394.100 0.986270
394.200 0.992412
394.300 0.989522
394.400 0.991690
394.500 0.997230
394.600 1.007106
394.700 1.009996
394.800 1.003613
394.900 0.993978
395.000 0.988077
395.100 0.983018
395.200 0.977358
395.300 0.984945
395.400 0.983259
395.500 0.973744
395.600 0.959171
395.700 0.941106
395.800 0.937613
395.900 0.928219
396.000 0.900277
396.100 0.865952
396.200 0.821872
396.300 0.782368
396.400 0.737083
396.500 0.660966
396.600 0.562568
396.700 0.436469
396.800 0.347465
396.900 0.309768
397.000 0.356257
397.100 0.449115
397.200 0.558834
397.300 0.642539
397.400 0.717572
397.500 0.768999
397.600 0.819102
397.700 0.856558
397.800 0.889438
397.900 0.920029
398.000 0.933277
398.100 0.943274
398.200 0.953390
398.300 0.968566
398.400 0.986872
398.500 1.004095
398.600 1.019029
398.700 1.033964
398.800 1.052391
398.900 1.056124
399.000 1.057690
399.100 1.063832
399.200 1.071420
399.300 1.085511
399.400 1.089847
399.500 1.085270
399.600 1.068048
399.700 1.056606
399.800 1.057449
399.900 1.074913
400.000 1.089245
400.100 1.099121
400.200 1.101289
400.300 1.095869
400.400 1.082380
400.500 1.069132
400.600 1.072383
400.700 1.086957
400.800 1.108515
400.900 1.121041
401.000 1.126581
401.100 1.125738
401.200 1.120438
401.300 1.116946
401.400 1.117307
401.500 1.125256
401.600 1.131519
401.700 1.135975
401.800 1.142358
401.900 1.147176
402.000 1.151512
402.100 1.149103
402.200 1.143081
402.300 1.136698
402.400 1.130555
402.500 1.132723
402.600 1.140672
402.700 1.154402
402.800 1.154763
402.900 1.145249
403.000 1.123931
403.100 1.109117
403.200 1.102975
403.300 1.106227
403.400 1.116343
403.500 1.133205
403.600 1.151150
403.700 1.171384
403.800 1.175960
403.900 1.170059
404.000 1.161990
404.100 1.155727
404.200 1.155606
404.300 1.145249
404.400 1.116946
404.500 1.092617
404.600 1.084186
404.700 1.106347
404.800 1.134409
404.900 1.154643
405.000 1.156690
405.100 1.156088
405.200 1.150428
405.300 1.142238
405.400 1.134530
405.500 1.130435
405.600 1.130073
405.700 1.130314
405.800 1.133807
405.900 1.148380
406.000 1.155606
406.100 1.149464
406.200 1.121161
406.300 1.094183
406.400 1.081537
406.500 1.078646
406.600 1.085632
406.700 1.092015
406.800 1.093581
406.900 1.091172
407.000 1.081055
407.100 1.060701
407.200 1.052029
407.300 1.059015
407.400 1.066843
407.500 1.065518
407.600 1.042515
407.700 1.021197
407.800 1.011080
407.900 1.025413
408.000 1.047573
408.100 1.062628
408.200 1.062628
408.300 1.052150
408.400 1.040226
408.500 1.028062
408.600 1.028062
408.700 1.029869
408.800 1.032037
408.900 1.029146
409.000 1.015296
409.100 1.005299
409.200 0.995785
409.300 0.976515
409.400 0.957244
409.500 0.924244
409.600 0.896543
409.700 0.861496
409.800 0.816211
409.900 0.760448
410.000 0.672528
410.100 0.614718
410.200 0.599301
410.300 0.656751
410.400 0.733349
410.500 0.807780
410.600 0.848729
410.700 0.884861
410.800 0.905817
410.900 0.925449
411.000 0.945321
411.100 0.961219
411.200 0.982536
411.300 0.998434
411.400 1.016982
411.500 1.034205
411.600 1.041792
411.700 1.040708
411.800 1.035048
411.900 1.031555
412.000 1.035650
412.100 1.046007
412.200 1.057931
412.300 1.065639
412.400 1.072865
412.500 1.078165
412.600 1.079971
412.700 1.079851
412.800 1.081055
412.900 1.085030
413.000 1.082862
413.100 1.072865
413.200 1.061785
413.300 1.064073
413.400 1.079730
413.500 1.095387
413.600 1.108033
413.700 1.118271
413.800 1.128869
413.900 1.139468
414.000 1.137782
414.100 1.124654
414.200 1.105263
414.300 1.087197
414.400 1.086354
414.500 1.094905
414.600 1.111165
414.700 1.115982
414.800 1.118150
414.900 1.120920
415.000 1.123570
415.100 1.126099
415.200 1.121522
415.300 1.113694
415.400 1.106588
415.500 1.103336
