# Wavelength (nm)   F_lamA (normalized erg/cm2/s/A)9.100 0.000655
9.400 0.000744
9.600 0.000806
9.800 0.000870
10.000 0.000936
10.200 0.001004
10.400 0.001073
10.600 0.001144
10.800 0.001217
11.000 0.001292
11.400 0.001449
11.800 0.001618
12.100 0.001753
12.500 0.001950
12.700 0.002058
12.800 0.002117
13.100 0.002300
13.200 0.002367
13.400 0.002508
13.700 0.002746
14.000 0.003020
14.300 0.003341
14.700 0.003853
15.100 0.004485
15.500 0.005271
15.900 0.006239
16.200 0.007107
16.600 0.008485
17.000 0.010149
17.300 0.011613
17.700 0.013886
18.000 0.015854
18.200 0.017303
18.600 0.020565
19.100 0.025353
19.400 0.028637
19.800 0.033535
20.200 0.039075
20.500 0.043680
21.000 0.052211
21.600 0.063952
22.000 0.072757
22.300 0.079857
22.700 0.090057
23.000 2.825170
23.400 3.109521
24.000 4.006604
24.600 5.472390
25.200 6.683177
25.700 5.173363
26.000 7.380297
26.400 9.315722
26.900 9.478995
27.400 9.625757
27.900 9.253348
28.400 9.733994
29.000 9.686296
29.600 8.904788
30.100 6.175014
30.800 7.671987
31.800 9.546872
32.800 9.568886
33.800 9.379930
34.800 9.207485
35.700 9.339571
36.600 9.447808
37.500 9.288204
38.500 8.792882
39.500 9.016694
40.500 9.027701
41.400 8.906623
42.200 8.680976
43.000 8.534214
44.100 8.545221
45.100 8.400294
46.000 8.170978
47.000 8.026050
48.000 7.954504
49.000 7.701339
50.000 7.679325
50.600 8.260870
51.200 9.783526
52.000 9.592735
53.000 9.420290
54.000 8.926802
55.000 8.816731
56.000 9.051550
57.000 8.932306
58.000 8.653458
59.000 8.613099
60.000 8.359934
61.000 8.123280
62.000 8.207668
63.000 8.031554
64.000 7.947166
65.000 7.767382
65.800 7.572922
66.500 7.585764
67.500 7.503210
68.500 7.231701
69.500 7.246377
70.500 6.965694
71.600 7.006054
72.600 6.903320
73.500 6.809760
74.500 6.662998
75.500 6.541919
76.500 6.378646
77.500 6.321776
78.500 6.209870
79.500 6.116309
80.500 6.035590
81.500 5.951202
82.500 5.872317
83.500 5.628325
84.500 5.677857
85.500 5.575124
86.500 5.518254
87.500 5.437534
88.500 5.351312
89.500 5.265089
90.500 5.149514
91.500 5.499908
92.500 9.548707
93.500 13.346175
94.500 19.556045
95.500 22.326179
96.500 25.995230
97.500 15.793432
98.500 27.462851
99.500 26.985874
100.500 27.884792
101.500 24.857824
102.500 14.450560
103.500 22.803155
104.500 26.655660
105.500 26.820767
106.500 25.518254
107.500 25.866813
108.500 24.142359
109.500 25.169694
110.500 24.289121
111.500 23.867180
112.500 22.729774
113.500 22.949917
114.500 22.087690
115.500 21.812511
116.500 21.427261
117.500 19.207485
118.500 19.941295
119.500 18.381948
120.500 16.158503
121.500 9.866080
122.500 15.419189
123.500 17.268391
124.500 17.576591
125.500 17.626124
126.500 17.229866
127.500 17.332600
128.500 17.152816
129.500 16.499725
130.500 16.198863
131.500 16.327279
132.500 15.909008
133.500 15.476059
134.500 15.496239
135.500 15.219226
136.500 14.865162
137.500 14.615667
138.500 14.428545
139.500 13.731425
140.500 13.465419
141.500 13.665382
142.500 13.403045
143.500 13.195744
144.200 13.085672
144.700 12.973766
145.500 12.779307
146.500 12.527977
147.500 12.328013
148.500 12.128050
149.500 11.906072
150.500 11.685929
151.200 11.517153
151.700 11.456613
152.500 11.254816
153.500 10.900752
154.500 10.689782
155.500 10.462300
156.500 10.377912
157.500 10.313704
158.500 10.201798
159.500 10.088057
160.500 9.779857
161.500 9.629426
162.500 9.451477
163.500 9.295542
164.500 9.022198
165.500 9.014860
166.500 9.005687
167.200 8.763530
167.700 8.833242
168.500 8.752522
169.500 8.581912
170.500 8.416804
171.500 8.253531
172.500 8.130618
173.500 8.101266
174.500 7.941662
175.500 7.868281
176.500 7.638965
177.500 7.627958
178.500 7.514218
179.500 7.439002
180.500 7.343607
181.500 7.213355
182.500 7.116125
183.500 7.011558
184.500 6.840947
185.500 6.707026
186.500 6.640983
187.500 6.609796
188.500 6.452027
189.500 6.323610
190.500 6.318107
191.500 6.173179
192.500 6.079618
193.500 6.033755
194.500 6.008072
195.500 5.853972
196.700 5.833792
197.600 5.782425
198.400 5.688864
199.500 5.560448
200.500 5.534764
201.500 5.465052
202.500 5.413686
203.500 5.332966
204.500 5.268758
205.500 4.863328
206.500 4.916529
207.400 5.101816
207.800 5.048615
208.500 5.028435
209.500 4.944047
210.500 4.907356
211.500 4.865162
212.500 4.813796
213.500 4.733076
214.500 4.685379
215.500 4.641350
216.500 4.549624
217.500 4.509264
218.500 4.450560
219.500 4.435883
220.500 4.360668
221.500 4.278114
222.500 4.232251
223.500 4.221244
224.500 4.157035
225.500 4.076316
226.500 4.043295
227.500 4.015777
228.500 3.979086
229.500 3.892864
230.500 3.861677
231.500 3.828655
232.500 3.614016
233.500 3.729591
234.500 3.647037
235.500 3.652541
236.500 3.575491
237.500 3.560815
238.500 3.459916
239.500 3.474592
240.500 3.430563
241.500 3.397542
242.500 3.386535
243.500 3.333333
244.500 3.309484
245.500 3.280132
246.500 3.230600
247.500 3.193909
248.500 3.171895
249.500 3.091176
250.500 3.120528
251.300 3.032471
251.800 3.061824
252.500 3.021464
253.500 2.981104
254.500 2.957256
255.500 2.955421
256.500 2.920565
257.500 2.907723
258.500 2.882040
259.500 2.849019
260.500 2.810493
261.500 2.777472
262.500 2.760961
263.500 2.738947
264.500 2.755458
265.500 2.729774
266.500 2.685746
267.500 2.671070
268.500 2.656393
269.500 2.612365
270.500 2.599523
271.500 2.560998
272.500 2.527977
273.500 2.511466
274.500 2.460099
275.500 2.447257
276.500 2.438085
277.500 2.441754
278.500 2.412401
279.500 2.311502
280.500 2.324344
281.500 2.364704
282.500 2.335351
283.500 2.311502
284.500 2.291323
285.500 2.261970
286.500 2.258301
287.500 2.238121
288.500 2.223445
289.500 2.206935
291.000 2.190424
293.000 2.146395
295.000 2.104201
297.000 2.078518
299.000 2.047331
301.000 2.014309
303.000 1.977619
305.000 1.942763
307.000 1.907907
309.000 1.874885
311.000 1.841864
313.000 1.808659
315.000 1.779307
317.000 1.751605
319.000 1.708677
321.000 1.689048
323.000 1.660980
325.000 1.640249
327.000 1.619703
329.000 1.594937
331.000 1.572555
332.200 1.534581
332.300 1.547973
332.400 1.541735
332.500 1.533847
332.600 1.519171
332.700 1.503394
332.800 1.507797
332.900 1.515502
333.000 1.523390
333.100 1.525592
333.200 1.518804
333.300 1.505962
333.400 1.494405
333.500 1.489451
333.600 1.477711
333.700 1.461567
333.800 1.455696
333.900 1.459732
334.000 1.458448
334.100 1.466887
334.200 1.468721
334.300 1.492570
334.400 1.514218
334.500 1.522840
334.600 1.531829
334.700 1.528894
334.800 1.504678
334.900 1.464135
335.000 1.416254
335.100 1.419373
335.200 1.442671
335.300 1.456247
335.400 1.456063
335.500 1.445423
335.600 1.444139
335.700 1.448908
335.800 1.445606
335.900 1.436617
336.000 1.434416
336.100 1.429096
336.200 1.440470
336.300 1.441020
336.400 1.439919
336.500 1.427261
336.600 1.413686
336.700 1.404329
336.800 1.397358
336.900 1.399927
337.000 1.413319
337.100 1.415887
337.200 1.401027
337.300 1.399560
337.400 1.409283
337.500 1.437167
337.600 1.452761
337.700 1.431480
337.800 1.412401
337.900 1.401945
338.000 1.412034
338.100 1.430196
338.200 1.448542
338.300 1.461383
338.400 1.458815
338.500 1.458265
338.600 1.454412
338.700 1.447257
338.800 1.444139
338.900 1.445423
339.000 1.451660
339.100 1.458998
339.200 1.458631
339.300 1.452761
339.400 1.463218
339.500 1.471657
339.600 1.477160
339.700 1.469455
339.800 1.460099
339.900 1.431664
340.000 1.408182
340.100 1.412585
340.200 1.399927
340.300 1.397909
340.400 1.398642
340.500 1.402312
340.600 1.391855
340.700 1.389286
340.800 1.399927
340.900 1.408732
341.000 1.413319
341.100 1.396074
341.200 1.399009
341.300 1.416437
341.400 1.432765
341.500 1.435333
341.600 1.433682
341.700 1.432581
341.800 1.438268
341.900 1.446157
342.000 1.447808
342.100 1.446707
342.200 1.437718
342.300 1.430380
342.400 1.426527
342.500 1.424509
342.600 1.430930
342.700 1.437351
342.800 1.444689
342.900 1.448908
343.000 1.435883
343.100 1.430013
343.200 1.427078
343.300 1.431480
343.400 1.437351
343.500 1.439919
343.600 1.442855
343.700 1.442488
343.800 1.442304
343.900 1.433132
344.000 1.413135
344.100 1.395524
344.200 1.389286
344.300 1.393689
344.400 1.398092
344.500 1.400294
344.600 1.410017
344.700 1.420657
344.800 1.438452
344.900 1.450193
345.000 1.417905
345.100 1.380664
345.200 1.362135
345.300 1.355348
345.400 1.365804
345.500 1.368006
345.600 1.365621
345.700 1.364887
345.800 1.360484
345.900 1.360851
346.000 1.357916
346.100 1.356265
346.200 1.362319
346.300 1.385434
346.400 1.374977
346.500 1.372409
346.600 1.375711
346.700 1.376995
346.800 1.377362
346.900 1.379380
347.000 1.387819
347.100 1.384150
347.200 1.377362
347.300 1.369473
347.400 1.366905
347.500 1.361585
347.600 1.359934
347.700 1.350945
347.800 1.339754
347.900 1.333884
348.000 1.343974
348.100 1.354247
348.200 1.345441
348.300 1.332416
348.400 1.332049
348.500 1.354430
348.600 1.375344
348.700 1.385250
348.800 1.391488
348.900 1.384150
349.000 1.372776
349.100 1.371308
349.200 1.381765
349.300 1.385250
349.400 1.378830
349.500 1.366355
349.600 1.358466
349.700 1.363970
349.800 1.370941
349.900 1.370391
350.000 1.349477
350.100 1.336819
350.200 1.343240
350.300 1.347092
350.400 1.339020
350.500 1.325628
350.600 1.318841
350.700 1.320859
350.800 1.328380
350.900 1.331866
351.000 1.336269
351.100 1.339020
351.200 1.336452
351.300 1.325445
351.400 1.319758
351.500 1.327096
351.600 1.337736
351.700 1.341956
351.800 1.344707
351.900 1.343607
352.000 1.342506
352.100 1.337920
352.200 1.331682
352.300 1.332233
352.400 1.336269
352.500 1.334801
352.600 1.336819
352.700 1.335902
352.800 1.338837
352.900 1.346175
353.000 1.354797
353.100 1.361952
353.200 1.368189
353.300 1.361218
353.400 1.345992
353.500 1.339204
353.600 1.339938
353.700 1.336269
353.800 1.337369
353.900 1.340855
354.000 1.347092
354.100 1.348743
354.200 1.348927
354.300 1.350028
354.400 1.353513
354.500 1.355715
354.600 1.357549
354.700 1.361585
354.800 1.365071
354.900 1.360301
355.000 1.356081
355.100 1.359200
355.200 1.362869
355.300 1.361218
355.400 1.351312
355.500 1.346175
355.600 1.348376
355.700 1.355898
355.800 1.358283
355.900 1.352596
356.000 1.345992
356.100 1.349294
356.200 1.353880
356.300 1.350394
356.400 1.339938
356.500 1.332416
356.600 1.331866
356.700 1.329848
356.800 1.333150
356.900 1.328380
357.000 1.315355
357.100 1.287837
357.200 1.272060
357.300 1.269492
357.400 1.270226
357.500 1.274629
357.600 1.282884
357.700 1.283618
357.800 1.280682
357.900 1.276646
358.000 1.277197
358.100 1.277564
358.200 1.273161
358.300 1.271693
358.400 1.271143
358.500 1.265272
358.600 1.256650
358.700 1.251330
358.800 1.248395
358.900 1.254816
359.000 1.265456
359.100 1.268024
359.200 1.265823
359.300 1.267107
359.400 1.269308
359.500 1.272977
359.600 1.274995
359.700 1.278114
359.800 1.283985
359.900 1.288754
360.000 1.292607
360.100 1.287837
360.200 1.286553
360.300 1.280132
360.400 1.274995
360.500 1.274995
360.600 1.277747
360.700 1.278664
360.800 1.281967
360.900 1.287287
361.000 1.289672
361.100 1.284902
361.200 1.282334
361.300 1.279398
361.400 1.278298
361.500 1.279949
361.600 1.284902
361.700 1.290039
361.800 1.293708
361.900 1.295359
362.000 1.291139
362.100 1.290956
362.200 1.302697
362.300 1.308200
362.400 1.305082
362.500 1.308384
362.600 1.316639
362.700 1.324895
362.800 1.323060
362.900 1.312053
363.000 1.302330
363.100 1.295909
363.200 1.296092
363.300 1.305265
363.400 1.319391
363.500 1.317740
363.600 1.293708
363.700 1.280682
363.800 1.282334
363.900 1.287287
364.000 1.289488
364.100 1.289305
364.200 1.286920
364.300 1.279949
364.400 1.272611
364.500 1.273161
364.600 1.269308
364.700 1.269859
364.800 1.272427
364.900 1.271877
365.000 1.272244
365.100 1.271877
365.200 1.274078
365.300 1.276280
365.400 1.277564
365.500 1.279215
365.600 1.283251
365.700 1.281967
365.800 1.280316
365.900 1.277931
366.000 1.269308
366.100 1.266006
366.200 1.262704
366.300 1.266924
366.400 1.270593
366.500 1.269492
366.600 1.267841
366.700 1.262154
366.800 1.258668
366.900 1.260870
367.000 1.264906
367.100 1.266190
367.200 1.268575
367.300 1.265456
367.400 1.260136
367.500 1.250413
367.600 1.244175
367.700 1.240873
367.800 1.238672
367.900 1.241240
368.000 1.244909
368.100 1.251330
368.200 1.249129
368.300 1.245276
368.400 1.243808
368.500 1.238672
368.600 1.230233
368.700 1.229132
368.800 1.246193
368.900 1.269125
369.000 1.269125
369.100 1.248395
369.200 1.248578
369.300 1.266006
369.400 1.285269
369.500 1.283801
369.600 1.253165
369.700 1.236287
369.800 1.241974
369.900 1.282517
370.000 1.328930
370.100 1.333884
370.200 1.294074
370.300 1.219226
370.400 1.181435
370.500 1.180884
370.600 1.232068
370.700 1.285452
370.800 1.327463
370.900 1.308200
371.000 1.250780
371.100 1.192258
371.200 1.158320
371.300 1.179417
371.400 1.242708
371.500 1.340488
371.600 1.400660
371.700 1.434599
371.800 1.423592
371.900 1.357366
372.000 1.241240
372.100 1.167492
372.200 1.123830
372.300 1.156852
372.400 1.240873
372.500 1.348010
372.600 1.410200
372.700 1.472390
372.800 1.498074
372.900 1.503394
373.000 1.479728
373.100 1.409833
373.200 1.290956
373.300 1.189873
373.400 1.100532
373.500 1.084388
373.600 1.137589
373.700 1.250963
373.800 1.354063
373.900 1.478261
374.000 1.547239
374.100 1.596771
374.200 1.610714
374.300 1.599706
374.400 1.571271
374.500 1.525225
374.600 1.447624
374.700 1.348560
374.800 1.240139
374.900 1.116859
375.000 1.070629
375.100 1.086406
375.200 1.171161
375.300 1.283251
375.400 1.407081
375.500 1.485966
375.600 1.560448
375.700 1.588332
375.800 1.601174
375.900 1.600991
376.000 1.596404
376.100 1.596771
376.200 1.614383
376.300 1.609796
376.400 1.586865
376.500 1.535498
376.600 1.464135
376.700 1.386535
376.800 1.267841
376.900 1.150615
377.000 1.059439
377.100 1.025683
377.200 1.089158
377.300 1.208769
377.400 1.313520
377.500 1.419189
377.600 1.502110
377.700 1.571638
377.800 1.641350
377.900 1.685195
378.000 1.729958
378.100 1.754357
378.200 1.772886
378.300 1.777289
378.400 1.779123
378.500 1.780407
378.600 1.771968
378.700 1.754174
378.800 1.734361
378.900 1.708310
379.000 1.671436
379.100 1.630527
379.200 1.568153
379.300 1.499174
379.400 1.411668
379.500 1.286003
379.600 1.170061
379.700 1.051367
379.800 0.996514
379.900 1.028986
380.000 1.142359
380.100 1.263805
380.200 1.396624
380.300 1.481380
380.400 1.561181
380.500 1.620987
380.600 1.660246
380.700 1.702807
380.800 1.736012
380.900 1.773620
381.000 1.803155
381.100 1.821317
381.200 1.817648
381.300 1.805173
381.400 1.793249
381.500 1.794717
381.600 1.796184
381.700 1.795634
381.800 1.784443
381.900 1.759127
382.000 1.739314
382.100 1.731976
382.200 1.745551
382.300 1.746835
382.400 1.726656
382.500 1.697120
382.600 1.657311
382.700 1.627408
382.800 1.583930
382.900 1.527243
383.000 1.467070
383.100 1.380297
383.200 1.290956
383.300 1.169510
383.400 1.034489
383.500 0.969914
383.600 0.960741
383.700 1.030086
383.800 1.139791
383.900 1.257384
384.000 1.355715
384.100 1.459365
384.200 1.529628
384.300 1.605760
384.400 1.654559
384.500 1.699872
384.600 1.734728
384.700 1.758210
384.800 1.777472
384.900 1.788296
385.000 1.799119
385.100 1.817281
385.200 1.831040
385.300 1.836360
385.400 1.833425
385.500 1.827371
385.600 1.820583
385.700 1.822601
385.800 1.836360
385.900 1.851037
386.000 1.860209
386.100 1.862044
386.200 1.847367
386.300 1.815630
386.400 1.809760
386.500 1.812145
386.600 1.817832
386.700 1.826821
386.800 1.833242
386.900 1.832691
387.000 1.821501
387.100 1.805357
387.200 1.782058
387.300 1.769767
387.400 1.768299
387.500 1.769584
387.600 1.758210
387.700 1.731976
387.800 1.707577
387.900 1.680242
388.000 1.657861
388.100 1.623739
388.200 1.569253
388.300 1.515869
388.400 1.443038
388.500 1.354614
388.600 1.245643
388.700 1.102733
388.800 0.995414
388.900 0.940011
389.000 0.974684
389.100 1.080352
389.200 1.217758
389.300 1.321225
389.400 1.419189
389.500 1.483764
389.600 1.547789
389.700 1.602825
389.800 1.638415
389.900 1.667584
390.000 1.687397
390.100 1.719134
390.200 1.751972
390.300 1.774537
390.400 1.785360
390.500 1.788663
390.600 1.793983
390.700 1.808842
390.800 1.836360
390.900 1.863878
391.000 1.874885
391.100 1.878554
391.200 1.873051
391.300 1.860209
391.400 1.847367
391.500 1.851037
391.600 1.862044
391.700 1.869382
391.800 1.867547
391.900 1.860209
392.000 1.860209
392.100 1.862044
392.200 1.858375
392.300 1.851037
392.400 1.847367
392.500 1.852871
392.600 1.847367
392.700 1.841864
392.800 1.824069
392.900 1.804623
393.000 1.782609
393.100 1.733810
393.200 1.635847
393.300 1.516969
393.400 1.500642
393.500 1.572922
393.600 1.673638
393.700 1.744817
393.800 1.792699
393.900 1.818198
394.000 1.838195
394.100 1.851037
394.200 1.852871
394.300 1.845533
394.400 1.833058
394.500 1.816914
394.600 1.808476
394.700 1.808659
394.800 1.806458
394.900 1.800037
395.000 1.791414
395.100 1.780040
395.200 1.769767
395.300 1.766465
395.400 1.761879
395.500 1.747386
395.600 1.727206
395.700 1.703908
395.800 1.688314
395.900 1.668501
396.000 1.636397
396.100 1.598239
396.200 1.545221
396.300 1.498624
396.400 1.430930
396.500 1.348010
396.600 1.239222
396.700 1.073564
396.800 0.924418
396.900 0.822234
397.000 0.803889
397.100 0.869382
397.200 0.993029
397.300 1.115392
397.400 1.242524
397.500 1.335535
397.600 1.417905
397.700 1.483764
397.800 1.524674
397.900 1.575124
398.000 1.606678
398.100 1.638048
398.200 1.660613
398.300 1.677307
398.400 1.700055
398.500 1.719134
398.600 1.729958
398.700 1.730692
398.800 1.753073
398.900 1.764263
399.000 1.773620
399.100 1.782792
399.200 1.787195
399.300 1.794166
399.400 1.798019
399.500 1.802055
399.600 1.798202
399.700 1.794533
399.800 1.793616
399.900 1.797835
400.000 1.792699
400.100 1.785727
400.200 1.784260
400.300 1.780407
400.400 1.780407
400.500 1.780591
400.600 1.782609
400.700 1.785177
400.800 1.789763
400.900 1.789763
401.000 1.789396
401.100 1.791598
401.200 1.796551
401.300 1.800037
401.400 1.800771
401.500 1.804256
401.600 1.811961
401.700 1.822051
401.800 1.831224
401.900 1.834526
402.000 1.833792
402.100 1.828105
402.200 1.817098
402.300 1.794900
402.400 1.765731
402.500 1.741515
402.600 1.735278
402.700 1.751055
402.800 1.773253
402.900 1.791414
403.000 1.804623
403.100 1.808292
403.200 1.811961
403.300 1.813429
403.400 1.816914
403.500 1.825353
403.600 1.831957
403.700 1.836360
403.800 1.838195
403.900 1.833609
404.000 1.832875
404.100 1.832691
404.200 1.828472
404.300 1.822968
404.400 1.810493
404.500 1.796001
404.600 1.788296
404.700 1.796551
404.800 1.808659
404.900 1.818015
405.000 1.820033
405.100 1.819666
405.200 1.817281
405.300 1.807742
405.400 1.802238
405.500 1.806274
405.600 1.809393
405.700 1.813245
405.800 1.813612
405.900 1.815447
406.000 1.815630
406.100 1.804806
406.200 1.791965
406.300 1.780774
406.400 1.763163
406.500 1.727573
406.600 1.725371
406.700 1.732526
406.800 1.732710
406.900 1.732159
407.000 1.723904
407.100 1.709595
407.200 1.702073
407.300 1.698771
407.400 1.702807
407.500 1.701890
407.600 1.688864
407.700 1.677490
407.800 1.670519
407.900 1.677123
408.000 1.687397
408.100 1.690332
408.200 1.687213
408.300 1.677857
408.400 1.665566
408.500 1.652541
408.600 1.639332
408.700 1.633645
408.800 1.624656
408.900 1.616584
409.000 1.596221
409.100 1.574573
409.200 1.549807
409.300 1.510915
409.400 1.474225
409.500 1.418272
409.600 1.361402
409.700 1.295359
409.800 1.205100
409.900 1.107870
410.000 0.987709
410.100 0.893231
410.200 0.864429
410.300 0.918364
410.400 1.026601
410.500 1.151715
410.600 1.238305
410.700 1.312970
410.800 1.371125
410.900 1.413869
411.000 1.456797
411.100 1.487800
411.200 1.522106
411.300 1.547606
411.400 1.572739
411.500 1.596037
411.600 1.614199
411.700 1.621904
411.800 1.620437
411.900 1.621354
412.000 1.623739
412.100 1.628692
412.200 1.634012
412.300 1.642267
412.400 1.654926
412.500 1.666850
412.600 1.661897
412.700 1.648321
412.800 1.636397
412.900 1.630710
413.000 1.630710
413.100 1.637314
413.200 1.645570
413.300 1.656760
413.400 1.674188
413.500 1.683544
413.600 1.690332
413.700 1.695652
413.800 1.703541
413.900 1.709411
414.000 1.708861
414.100 1.701339
414.200 1.687764
414.300 1.674005
414.400 1.667400
414.500 1.673638
414.600 1.685929
414.700 1.694001
414.800 1.695102
414.900 1.694001
415.000 1.697854
415.100 1.703541
