# Wavelength (nm)   F_lamA (normalized erg/cm2/s/A)9.100 0.000023
9.400 0.000035
9.600 0.000045
9.800 0.000057
10.000 0.000072
10.200 0.000090
10.400 0.000112
10.600 0.000137
10.800 0.000166
11.000 0.000200
11.400 0.000284
11.800 0.000391
12.100 0.000489
12.500 0.000646
12.700 0.000736
12.800 0.000785
13.100 0.000943
13.200 0.001000
13.400 0.001121
13.700 0.001321
14.000 0.001543
14.300 0.001788
14.700 0.002150
15.100 0.002554
15.500 0.002998
15.900 0.003485
16.200 0.003874
16.600 0.004430
17.000 0.005022
17.300 0.005490
17.700 0.006142
18.000 0.006651
18.200 0.007002
18.600 0.007721
19.100 0.008656
19.400 0.009233
19.800 0.010018
20.200 0.010820
20.500 0.011431
21.000 0.012464
21.600 0.013717
22.000 0.014556
22.300 0.015188
22.700 0.016027
23.000 0.143305
23.400 0.141991
24.000 0.140470
24.600 0.139617
25.200 0.138719
25.700 0.133395
26.000 0.135239
26.400 0.135515
26.900 0.133303
27.400 0.131228
27.900 0.127656
28.400 0.126596
29.000 0.123531
29.600 0.119152
30.100 0.111777
30.800 0.109887
31.800 0.108712
32.800 0.104402
33.800 0.099608
34.800 0.095114
35.700 0.092095
36.600 0.089422
37.500 0.085872
38.500 0.081194
39.500 0.078797
40.500 0.076008
41.400 0.073197
42.200 0.070454
43.000 0.067988
44.100 0.065476
45.100 0.062872
46.000 0.060290
47.000 0.057847
48.000 0.055796
49.000 0.053261
50.000 0.051579
50.600 0.051371
51.200 0.053353
52.000 0.051556
53.000 0.049504
54.000 0.046877
55.000 0.045149
56.000 0.044711
57.000 0.043305
58.000 0.041553
59.000 0.040355
60.000 0.038673
61.000 0.037174
62.000 0.036621
63.000 0.035308
64.000 0.034363
65.000 0.033164
65.800 0.032104
66.500 0.031712
67.500 0.030860
68.500 0.029546
69.500 0.029016
70.500 0.027702
71.600 0.027333
72.600 0.026573
73.500 0.025928
74.500 0.025121
75.500 0.024383
76.500 0.023508
77.500 0.023040
78.500 0.022381
79.500 0.021830
80.500 0.021304
81.500 0.020791
82.500 0.020293
83.500 0.019357
84.500 0.019260
85.500 0.018746
86.500 0.018368
87.500 0.017937
88.500 0.017499
89.500 0.017080
90.500 0.016605
91.500 0.019491
92.500 0.027841
93.500 0.035584
94.500 0.046508
95.500 0.050403
96.500 0.055819
97.500 0.036483
98.500 0.054805
99.500 0.052017
100.500 0.054183
101.500 0.051832
102.500 0.035630
103.500 0.047499
104.500 0.052962
105.500 0.051809
106.500 0.048675
107.500 0.049458
108.500 0.046024
109.500 0.048352
110.500 0.046578
111.500 0.045863
112.500 0.043581
113.500 0.044549
114.500 0.042867
115.500 0.042567
116.500 0.042083
117.500 0.037474
118.500 0.039963
119.500 0.037405
120.500 0.034201
121.500 0.023876
122.500 0.033740
123.500 0.035930
124.500 0.035976
125.500 0.035584
126.500 0.034708
127.500 0.034916
128.500 0.034501
129.500 0.032865
130.500 0.032427
131.500 0.032888
132.500 0.032012
133.500 0.030952
134.500 0.031251
135.500 0.030767
136.500 0.029892
137.500 0.029454
138.500 0.029200
139.500 0.027426
140.500 0.027011
141.500 0.027748
142.500 0.027195
143.500 0.026919
144.200 0.026780
144.700 0.026573
145.500 0.026181
146.500 0.025628
147.500 0.025259
148.500 0.024937
149.500 0.024522
150.500 0.024061
151.200 0.023554
151.700 0.023554
152.500 0.023254
153.500 0.022372
154.500 0.022010
155.500 0.021712
156.500 0.021929
157.500 0.022724
158.500 0.023923
159.500 0.024637
160.500 0.023554
161.500 0.024752
162.500 0.024798
163.500 0.024867
164.500 0.028440
165.500 0.024706
166.500 0.032012
167.200 0.027841
167.700 0.038649
168.500 0.040839
169.500 0.039594
170.500 0.043144
171.500 0.048721
172.500 0.051072
173.500 0.056741
174.500 0.057087
175.500 0.062964
176.500 0.053722
177.500 0.061281
178.500 0.065568
179.500 0.073312
180.500 0.088615
181.500 0.092210
182.500 0.085619
183.500 0.090528
184.500 0.075801
185.500 0.085227
186.500 0.095990
187.500 0.095114
188.500 0.097672
189.500 0.104471
190.500 0.100968
191.500 0.109518
192.500 0.111708
193.500 0.095852
194.500 0.119659
195.500 0.122563
196.700 0.134109
197.600 0.130998
198.400 0.130560
199.500 0.130468
200.500 0.123185
201.500 0.130283
202.500 0.115557
203.500 0.137290
204.500 0.148767
205.500 0.148168
206.500 0.145195
207.400 0.164646
207.800 0.168334
208.500 0.167158
209.500 0.162157
210.500 0.156395
211.500 0.166582
212.500 0.164024
213.500 0.151026
214.500 0.170961
215.500 0.168841
216.500 0.158677
217.500 0.160037
218.500 0.173934
219.500 0.191772
220.500 0.184835
221.500 0.170569
222.500 0.180157
223.500 0.207513
224.500 0.193316
225.500 0.178682
226.500 0.172021
227.500 0.186794
228.500 0.200254
229.500 0.184950
230.500 0.202604
231.500 0.203918
232.500 0.181309
233.500 0.182807
234.500 0.152109
235.500 0.207121
236.500 0.164923
237.500 0.192625
238.500 0.142360
239.500 0.168679
240.500 0.166467
241.500 0.172828
242.500 0.220396
243.500 0.215280
244.500 0.232312
245.500 0.232312
246.500 0.235077
247.500 0.215510
248.500 0.195114
249.500 0.198571
250.500 0.246370
251.300 0.197350
251.800 0.167204
252.500 0.165176
253.500 0.187140
254.500 0.195275
255.500 0.229085
256.500 0.221434
257.500 0.248675
258.500 0.245679
259.500 0.238304
260.500 0.223692
261.500 0.207513
262.500 0.249136
263.500 0.276792
264.500 0.332104
265.500 0.354460
266.500 0.314819
267.500 0.338096
268.500 0.352846
269.500 0.311823
270.500 0.329569
271.500 0.292464
272.500 0.293386
273.500 0.318737
274.500 0.247062
275.500 0.279558
276.500 0.319198
277.500 0.339940
278.500 0.300761
279.500 0.144250
280.500 0.179719
281.500 0.355612
282.500 0.377967
283.500 0.370362
284.500 0.345471
285.500 0.274487
286.500 0.369440
287.500 0.380733
288.500 0.382577
289.500 0.388799
291.000 0.433740
293.000 0.422678
295.000 0.416455
297.000 0.424522
299.000 0.432819
301.000 0.440194
303.000 0.448029
305.000 0.462319
307.000 0.461166
309.000 0.461397
311.000 0.468311
313.000 0.466697
315.000 0.468541
317.000 0.485596
319.000 0.463010
321.000 0.487440
323.000 0.469002
325.000 0.513713
327.000 0.548513
329.000 0.550357
331.000 0.552431
332.200 0.576631
332.300 0.533994
332.400 0.518553
332.500 0.532381
332.600 0.524545
332.700 0.513713
332.800 0.522240
332.900 0.538142
333.000 0.570869
333.100 0.585619
333.200 0.571791
333.300 0.572713
333.400 0.561420
333.500 0.558424
333.600 0.545748
333.700 0.536299
333.800 0.549896
333.900 0.561420
334.000 0.569025
334.100 0.575248
334.200 0.565568
334.300 0.573174
334.400 0.585619
334.500 0.579627
334.600 0.575478
334.700 0.544826
334.800 0.518092
334.900 0.502650
335.000 0.527310
335.100 0.541139
335.200 0.530998
335.300 0.527080
335.400 0.548283
335.500 0.583545
335.600 0.584697
335.700 0.559115
335.800 0.502650
335.900 0.455865
336.000 0.425674
336.100 0.443420
336.200 0.474303
336.300 0.518783
336.400 0.549666
336.500 0.539295
336.600 0.530998
336.700 0.532381
336.800 0.526619
336.900 0.521549
337.000 0.476838
337.100 0.442729
337.200 0.445033
337.300 0.474533
337.400 0.510947
337.500 0.545056
337.600 0.557041
337.700 0.549205
337.800 0.530076
337.900 0.518322
338.000 0.526850
338.100 0.536068
338.200 0.540447
338.300 0.542982
338.400 0.548744
338.500 0.561650
338.600 0.549666
338.700 0.518553
338.800 0.496197
338.900 0.518322
339.000 0.547131
339.100 0.573174
339.200 0.559115
339.300 0.536068
339.400 0.540217
339.500 0.552892
339.600 0.575248
339.700 0.586771
339.800 0.599216
339.900 0.610048
340.000 0.609127
340.100 0.601060
340.200 0.568103
340.300 0.557041
340.400 0.545978
340.500 0.557732
340.600 0.564416
340.700 0.555428
340.800 0.536299
340.900 0.536760
341.000 0.560959
341.100 0.557271
341.200 0.545287
341.300 0.523162
341.400 0.521549
341.500 0.548283
341.600 0.573634
341.700 0.584927
341.800 0.588384
341.900 0.589076
342.000 0.595068
342.100 0.596912
342.200 0.575478
342.300 0.544826
342.400 0.536068
342.500 0.546900
342.600 0.558885
342.700 0.573174
342.800 0.597142
342.900 0.616271
343.000 0.631943
343.100 0.607052
343.200 0.578013
343.300 0.563724
343.400 0.582853
343.500 0.615810
343.600 0.619037
343.700 0.596912
343.800 0.573634
343.900 0.554736
344.000 0.540217
344.100 0.522240
344.200 0.512100
344.300 0.513713
344.400 0.523853
344.500 0.536529
344.600 0.564416
344.700 0.599447
344.800 0.622724
344.900 0.633326
345.000 0.611892
345.100 0.578244
345.200 0.554275
345.300 0.554045
345.400 0.566490
345.500 0.584006
345.600 0.590228
345.700 0.589767
345.800 0.586310
345.900 0.578013
346.000 0.559115
346.100 0.542982
346.200 0.555658
346.300 0.563033
346.400 0.572943
346.500 0.562342
346.600 0.563955
346.700 0.585849
346.800 0.612353
346.900 0.631712
347.000 0.636091
347.100 0.624337
347.200 0.610740
347.300 0.578474
347.400 0.553353
347.500 0.544596
347.600 0.547592
347.700 0.577783
347.800 0.604978
347.900 0.618576
348.000 0.631482
348.100 0.630791
348.200 0.622033
348.300 0.616041
348.400 0.611662
348.500 0.620189
348.600 0.634478
348.700 0.633095
348.800 0.620419
348.900 0.595759
349.000 0.575017
349.100 0.582392
349.200 0.603134
349.300 0.607283
349.400 0.602443
349.500 0.592072
349.600 0.582162
349.700 0.588384
349.800 0.582623
349.900 0.583775
350.000 0.583545
350.100 0.583775
350.200 0.597834
350.300 0.604978
350.400 0.607052
350.500 0.596220
350.600 0.584466
350.700 0.579396
350.800 0.573865
350.900 0.581240
351.000 0.583545
351.100 0.583314
351.200 0.574787
351.300 0.563263
351.400 0.565799
351.500 0.579857
351.600 0.614197
351.700 0.640009
351.800 0.641392
351.900 0.612814
352.000 0.588845
352.100 0.577783
352.200 0.570177
352.300 0.563033
352.400 0.545287
352.500 0.531920
352.600 0.543213
352.700 0.560728
352.800 0.584236
352.900 0.604978
353.000 0.619267
353.100 0.632634
353.200 0.626181
353.300 0.592072
353.400 0.570408
353.500 0.566951
353.600 0.597142
353.700 0.636783
353.800 0.652454
353.900 0.657064
354.000 0.649458
354.100 0.642314
354.200 0.642083
354.300 0.654529
354.400 0.663517
354.500 0.658216
354.600 0.650150
354.700 0.638626
354.800 0.633556
354.900 0.638857
355.000 0.652915
355.100 0.667435
355.200 0.660060
355.300 0.636091
355.400 0.618806
355.500 0.621341
355.600 0.635169
355.700 0.654990
355.800 0.668587
355.900 0.666974
356.000 0.662595
356.100 0.660290
356.200 0.654068
356.300 0.636783
356.400 0.612584
356.500 0.589998
356.600 0.581701
356.700 0.586080
356.800 0.587232
356.900 0.583084
357.000 0.567642
357.100 0.556810
357.200 0.557963
357.300 0.564185
357.400 0.572713
357.500 0.586080
357.600 0.596681
357.700 0.605439
357.800 0.614197
357.900 0.605670
358.000 0.586541
358.100 0.568334
358.200 0.557502
358.300 0.560959
358.400 0.555658
358.500 0.538373
358.600 0.513713
358.700 0.502420
358.800 0.518783
358.900 0.557271
359.000 0.592763
359.100 0.607744
359.200 0.603134
359.300 0.597834
359.400 0.605209
359.500 0.624568
359.600 0.640931
359.700 0.646923
359.800 0.645771
359.900 0.643005
360.000 0.641162
360.100 0.622955
360.200 0.608896
360.300 0.604748
360.400 0.616041
360.500 0.624337
360.600 0.616041
360.700 0.603826
360.800 0.591841
360.900 0.591150
361.000 0.592994
361.100 0.597834
361.200 0.610970
361.300 0.622033
361.400 0.634708
361.500 0.659829
361.600 0.657525
361.700 0.639548
361.800 0.614427
361.900 0.593224
362.000 0.605439
362.100 0.625490
362.200 0.638626
362.300 0.647845
362.400 0.656142
362.500 0.676423
362.600 0.703388
362.700 0.728970
362.800 0.719521
362.900 0.684490
363.000 0.631943
363.100 0.602904
363.200 0.613966
363.300 0.641853
363.400 0.654068
363.500 0.644849
363.600 0.641622
363.700 0.660751
363.800 0.681954
363.900 0.691864
364.000 0.693017
364.100 0.686103
364.200 0.671353
364.300 0.658216
364.400 0.647384
364.500 0.640240
364.600 0.635169
364.700 0.632404
364.800 0.631482
364.900 0.628716
365.000 0.629638
365.100 0.635400
365.200 0.652224
365.300 0.669048
365.400 0.687716
365.500 0.707075
365.600 0.719982
365.700 0.724130
365.800 0.719290
365.900 0.717677
366.000 0.718368
366.100 0.707997
366.200 0.694169
366.300 0.682876
366.400 0.685642
366.500 0.696474
366.600 0.701083
366.700 0.700853
366.800 0.688868
366.900 0.673888
367.000 0.669509
367.100 0.677575
367.200 0.691173
367.300 0.700622
367.400 0.699009
367.500 0.693017
367.600 0.676193
367.700 0.654759
367.800 0.639087
367.900 0.640470
368.000 0.648767
368.100 0.653607
368.200 0.657755
368.300 0.658908
368.400 0.660982
368.500 0.652454
368.600 0.646462
368.700 0.651072
368.800 0.667896
368.900 0.692325
369.000 0.699470
369.100 0.699009
369.200 0.696474
369.300 0.691173
369.400 0.689329
369.500 0.696704
369.600 0.697165
369.700 0.690482
369.800 0.699931
369.900 0.715142
370.000 0.735884
370.100 0.730353
370.200 0.693247
370.300 0.645771
370.400 0.613736
370.500 0.605670
370.600 0.613505
370.700 0.624107
370.800 0.637705
370.900 0.641622
371.000 0.629869
371.100 0.620880
371.200 0.624337
371.300 0.652685
371.400 0.689560
371.500 0.719521
371.600 0.733810
371.700 0.729892
371.800 0.701083
371.900 0.651302
372.000 0.577783
372.100 0.533072
372.200 0.543443
372.300 0.591381
372.400 0.656372
372.500 0.696704
372.600 0.705462
372.700 0.706384
372.800 0.708228
372.900 0.713759
373.000 0.712607
373.100 0.690021
373.200 0.621111
373.300 0.555428
373.400 0.506568
373.500 0.494584
373.600 0.526850
373.700 0.588384
373.800 0.642544
373.900 0.696474
374.000 0.727357
374.100 0.733118
374.200 0.712376
374.300 0.687716
374.400 0.662826
374.500 0.639318
374.600 0.629408
374.700 0.602443
374.800 0.571099
374.900 0.541830
375.000 0.536760
375.100 0.561189
375.200 0.607744
375.300 0.678728
375.400 0.730353
375.500 0.750173
375.600 0.745103
375.700 0.718138
375.800 0.687255
375.900 0.675040
376.000 0.682646
376.100 0.704771
376.200 0.716985
376.300 0.718138
376.400 0.711224
376.500 0.702696
376.600 0.689099
376.700 0.667896
376.800 0.628716
376.900 0.586771
377.000 0.560037
377.100 0.575709
377.200 0.620189
377.300 0.675732
377.400 0.711454
377.500 0.722747
377.600 0.728048
377.700 0.738419
377.800 0.763540
377.900 0.788200
378.000 0.808942
378.100 0.814934
378.200 0.808020
378.300 0.799032
378.400 0.793731
378.500 0.780825
378.600 0.769071
378.700 0.748560
378.800 0.733810
378.900 0.735653
379.000 0.740724
379.100 0.741415
379.200 0.734732
379.300 0.710071
379.400 0.679189
379.500 0.634939
379.600 0.587463
379.700 0.543674
379.800 0.526619
379.900 0.555888
380.000 0.634248
380.100 0.700622
380.200 0.749021
380.300 0.764923
380.400 0.771145
380.500 0.771376
380.600 0.769071
380.700 0.774602
380.800 0.786587
380.900 0.804102
381.000 0.817700
381.100 0.814934
381.200 0.785665
381.300 0.757317
381.400 0.732888
381.500 0.728278
381.600 0.748329
381.700 0.770684
381.800 0.775755
381.900 0.750634
382.000 0.726896
382.100 0.722286
382.200 0.737728
382.300 0.743720
382.400 0.719290
382.500 0.695552
382.600 0.682876
382.700 0.669970
382.800 0.661212
382.900 0.652685
383.000 0.643466
383.100 0.623876
383.200 0.589306
383.300 0.537221
383.400 0.490205
383.500 0.473842
383.600 0.489053
383.700 0.521088
383.800 0.557271
383.900 0.592533
384.000 0.621802
384.100 0.663978
384.200 0.705693
384.300 0.747868
384.400 0.777599
384.500 0.785895
384.600 0.797649
384.700 0.808942
384.800 0.811247
384.900 0.801567
385.000 0.787970
385.100 0.797419
385.200 0.818391
385.300 0.838442
385.400 0.837751
385.500 0.820696
385.600 0.800184
385.700 0.783130
385.800 0.762849
385.900 0.755704
386.000 0.764231
386.100 0.786356
386.200 0.813552
386.300 0.828993
386.400 0.826227
386.500 0.819083
386.600 0.819313
386.700 0.825766
386.800 0.833602
386.900 0.832219
387.000 0.816087
387.100 0.796727
387.200 0.772528
387.300 0.763310
387.400 0.769302
387.500 0.781747
387.600 0.781056
387.700 0.758239
387.800 0.737267
387.900 0.732657
388.000 0.745333
388.100 0.755013
388.200 0.744872
388.300 0.732888
388.400 0.716985
388.500 0.678267
388.600 0.628255
388.700 0.566260
388.800 0.525236
388.900 0.526850
389.000 0.569486
389.100 0.632404
389.200 0.687025
389.300 0.708919
389.400 0.715603
389.500 0.728048
389.600 0.743720
389.700 0.761927
389.800 0.772989
389.900 0.773681
390.000 0.778520
390.100 0.786817
390.200 0.784513
390.300 0.778520
390.400 0.764692
390.500 0.760083
390.600 0.768380
390.700 0.793731
390.800 0.820926
390.900 0.845356
391.000 0.856649
391.100 0.859645
391.200 0.861950
391.300 0.859645
391.400 0.844665
391.500 0.834063
391.600 0.831758
391.700 0.826919
391.800 0.817700
391.900 0.805255
392.000 0.795805
392.100 0.788431
392.200 0.786587
392.300 0.795345
392.400 0.798341
392.500 0.795805
392.600 0.770224
392.700 0.736345
392.800 0.685411
392.900 0.622033
393.000 0.543904
393.100 0.427518
393.200 0.318507
393.300 0.248444
393.400 0.246831
393.500 0.321042
393.600 0.442729
393.700 0.546209
393.800 0.648997
393.900 0.713298
394.000 0.751786
394.100 0.774833
394.200 0.781977
394.300 0.777829
394.400 0.778751
394.500 0.793040
394.600 0.813321
394.700 0.824614
394.800 0.822309
394.900 0.815626
395.000 0.812630
395.100 0.810094
395.200 0.811247
395.300 0.824153
395.400 0.830837
395.500 0.824383
395.600 0.812399
395.700 0.802259
395.800 0.805024
395.900 0.808712
396.000 0.782669
396.100 0.752708
396.200 0.717677
396.300 0.683107
396.400 0.650380
396.500 0.568103
396.600 0.469693
396.700 0.350542
396.800 0.274257
396.900 0.265268
397.000 0.331874
397.100 0.430744
397.200 0.542060
397.300 0.618345
397.400 0.678497
397.500 0.723439
397.600 0.754782
397.700 0.786587
397.800 0.810094
397.900 0.831528
398.000 0.837520
398.100 0.833833
398.200 0.837981
398.300 0.843973
398.400 0.857340
398.500 0.870708
398.600 0.883614
398.700 0.897442
398.800 0.905278
398.900 0.902973
399.000 0.899746
399.100 0.903895
399.200 0.912422
399.300 0.919797
399.400 0.919797
399.500 0.912422
399.600 0.892141
399.700 0.879926
399.800 0.876700
399.900 0.892141
400.000 0.909196
400.100 0.923024
400.200 0.929477
400.300 0.924637
400.400 0.905969
400.500 0.884997
400.600 0.887762
400.700 0.905047
400.800 0.926481
400.900 0.938235
401.000 0.942153
401.100 0.944457
401.200 0.944457
401.300 0.941000
401.400 0.940770
401.500 0.949067
401.600 0.954367
401.700 0.953676
401.800 0.957594
401.900 0.960360
402.000 0.963817
402.100 0.961281
402.200 0.956903
402.300 0.953215
402.400 0.948145
402.500 0.949988
402.600 0.958055
402.700 0.977645
402.800 0.979488
402.900 0.968887
403.000 0.941692
403.100 0.920258
403.200 0.910348
403.300 0.912422
403.400 0.923024
403.500 0.945149
403.600 0.968426
403.700 0.991242
403.800 0.996773
403.900 0.990781
404.000 0.980410
404.100 0.972344
404.200 0.972113
404.300 0.957824
404.400 0.924867
404.500 0.896520
404.600 0.890528
404.700 0.919336
404.800 0.954137
404.900 0.976262
405.000 0.979027
405.100 0.982715
405.200 0.978106
405.300 0.969117
405.400 0.962895
405.500 0.956903
405.600 0.957594
405.700 0.957594
405.800 0.960590
405.900 0.976723
406.000 0.985020
406.100 0.975801
406.200 0.938926
406.300 0.907813
406.400 0.900207
406.500 0.908504
406.600 0.920719
406.700 0.929938
406.800 0.933395
406.900 0.933164
407.000 0.924867
407.100 0.903434
407.200 0.895829
407.300 0.907121
407.400 0.916340
407.500 0.913344
407.600 0.890758
407.700 0.871168
407.800 0.862872
407.900 0.881770
408.000 0.909887
408.100 0.932242
408.200 0.939156
408.300 0.930629
408.400 0.919106
408.500 0.912422
408.600 0.921410
408.700 0.935699
408.800 0.948606
408.900 0.949297
409.000 0.941000
409.100 0.935008
409.200 0.937313
409.300 0.928324
409.400 0.915649
409.500 0.888684
409.600 0.862411
409.700 0.842821
409.800 0.810325
409.900 0.764923
410.000 0.690482
410.100 0.636091
410.200 0.625951
410.300 0.687947
410.400 0.760774
410.500 0.823001
410.600 0.855266
410.700 0.872321
410.800 0.884075
410.900 0.887762
411.000 0.897211
411.100 0.906891
411.200 0.917493
411.300 0.928094
411.400 0.936391
411.500 0.948606
411.600 0.950680
411.700 0.941461
411.800 0.929246
411.900 0.916340
412.000 0.918645
412.100 0.927633
412.200 0.937774
412.300 0.943305
412.400 0.946071
412.500 0.951602
412.600 0.953445
412.700 0.951602
412.800 0.950449
412.900 0.954598
413.000 0.949988
413.100 0.934547
413.200 0.918184
413.300 0.916340
413.400 0.930399
413.500 0.946992
413.600 0.959438
413.700 0.972344
413.800 0.984328
413.900 0.994238
414.000 0.988477
414.100 0.968426
414.200 0.942844
414.300 0.921641
414.400 0.924176
414.500 0.940539
414.600 0.959668
414.700 0.962895
414.800 0.961512
414.900 0.964969
415.000 0.968426
415.100 0.972113
415.200 0.967735
415.300 0.961281
415.400 0.954137
415.500 0.949528
