# Wavelength (nm)   F_lamA (normalized erg/cm2/s/A)9.100 0.000082
9.400 0.000113
9.600 0.000138
9.800 0.000167
10.000 0.000200
10.200 0.000237
10.400 0.000280
10.600 0.000328
10.800 0.000381
11.000 0.000440
11.400 0.000577
11.800 0.000740
12.100 0.000880
12.500 0.001091
12.700 0.001208
12.800 0.001269
13.100 0.001462
13.200 0.001530
13.400 0.001672
13.700 0.001897
14.000 0.002138
14.300 0.002394
14.700 0.002757
15.100 0.003145
15.500 0.003554
15.900 0.003983
16.200 0.004317
16.600 0.004775
17.000 0.005245
17.300 0.005607
17.700 0.006096
18.000 0.006468
18.200 0.006717
18.600 0.007221
19.100 0.007847
19.400 0.008224
19.800 0.008728
20.200 0.009227
20.500 0.009594
21.000 0.010201
21.600 0.010910
22.000 0.011370
22.300 0.011707
22.700 0.012148
23.000 0.078620
23.400 0.077250
24.000 0.075489
24.600 0.074070
25.200 0.072554
25.700 0.069961
26.000 0.070108
26.400 0.069765
26.900 0.068102
27.400 0.066487
27.900 0.064628
28.400 0.063258
29.000 0.061350
29.600 0.059100
30.100 0.056115
30.800 0.054990
31.800 0.053180
32.800 0.050587
33.800 0.048009
34.800 0.045577
35.700 0.043664
36.600 0.041835
37.500 0.039966
38.500 0.037833
39.500 0.036189
40.500 0.034540
41.400 0.033068
42.200 0.031761
43.000 0.030553
44.100 0.029090
45.100 0.027759
46.000 0.026575
47.000 0.025382
48.000 0.024295
49.000 0.023170
50.000 0.022226
50.600 0.021991
51.200 0.022295
52.000 0.021536
53.000 0.020665
54.000 0.019662
55.000 0.018909
56.000 0.018371
57.000 0.017686
58.000 0.016952
59.000 0.016375
60.000 0.015714
61.000 0.015088
62.000 0.014658
63.000 0.014119
64.000 0.013650
65.000 0.013156
65.800 0.012745
66.500 0.012490
67.500 0.012094
68.500 0.011619
69.500 0.011306
70.500 0.010856
71.600 0.010563
72.600 0.010235
73.500 0.009951
74.500 0.009628
75.500 0.009325
76.500 0.009017
77.500 0.008772
78.500 0.008508
79.500 0.008263
80.500 0.008033
81.500 0.007813
82.500 0.007603
83.500 0.007309
84.500 0.007182
85.500 0.006981
86.500 0.006810
87.500 0.006629
88.500 0.006458
89.500 0.006287
90.500 0.006111
91.500 0.007373
92.500 0.009956
93.500 0.012319
94.500 0.015832
95.500 0.017114
96.500 0.018987
97.500 0.013023
98.500 0.023792
99.500 0.051370
100.500 0.043434
101.500 0.019119
102.500 0.012265
103.500 0.017368
104.500 0.050685
105.500 0.164237
106.500 0.272211
107.500 0.381164
108.500 0.429746
109.500 0.445401
110.500 0.501957
111.500 0.498043
112.500 0.468346
113.500 0.468346
114.500 0.408904
115.500 0.336888
116.500 0.272798
117.500 0.173386
118.500 0.080186
119.500 0.023200
120.500 0.013395
121.500 0.008894
122.500 0.013121
123.500 0.022167
124.500 0.070939
125.500 0.164286
126.500 0.229207
127.500 0.346820
128.500 0.447750
129.500 0.512231
130.500 0.532779
131.500 0.605186
132.500 0.644814
133.500 0.668787
134.500 0.715264
135.500 0.704501
136.500 0.713307
137.500 0.733855
138.500 0.753425
139.500 0.765656
140.500 0.766145
141.500 0.766634
142.500 0.769080
143.500 0.748043
144.200 0.783757
144.700 0.779354
145.500 0.789139
146.500 0.767613
147.500 0.776908
148.500 0.775930
149.500 0.773973
150.500 0.786693
151.200 0.782290
151.700 0.780822
152.500 0.765656
153.500 0.758806
154.500 0.778376
155.500 0.760274
156.500 0.715264
157.500 0.748532
158.500 0.766634
159.500 0.782779
160.500 0.747065
161.500 0.759785
162.500 0.724560
163.500 0.736301
164.500 0.754892
165.500 0.693249
166.500 0.769080
167.200 0.725049
167.700 0.744618
168.500 0.767613
169.500 0.744618
170.500 0.740215
171.500 0.756360
172.500 0.746086
173.500 0.765656
174.500 0.748532
175.500 0.764677
176.500 0.727006
177.500 0.756849
178.500 0.747554
179.500 0.761252
180.500 0.774462
181.500 0.769569
182.500 0.755871
183.500 0.757828
184.500 0.732877
185.500 0.744129
186.500 0.747065
187.500 0.748043
188.500 0.747065
189.500 0.749022
190.500 0.740215
191.500 0.741683
192.500 0.745597
193.500 0.724560
194.500 0.748043
195.500 0.744618
196.700 0.749022
197.600 0.736791
198.400 0.734834
199.500 0.729941
200.500 0.715753
201.500 0.709393
202.500 0.700098
203.500 0.718689
204.500 0.723581
205.500 0.708415
206.500 0.706947
207.400 0.724560
207.800 0.725049
208.500 0.721624
209.500 0.713307
210.500 0.707926
211.500 0.709883
212.500 0.707436
213.500 0.686399
214.500 0.705969
215.500 0.699119
216.500 0.679550
217.500 0.679550
218.500 0.688356
219.500 0.707436
220.500 0.689824
221.500 0.668297
222.500 0.670744
223.500 0.703523
224.500 0.683464
225.500 0.663894
226.500 0.653131
227.500 0.676614
228.500 0.682975
229.500 0.663405
230.500 0.675636
231.500 0.672701
232.500 0.620352
233.500 0.657045
234.500 0.615460
235.500 0.663894
236.500 0.623288
237.500 0.648728
238.500 0.596380
239.500 0.631115
240.500 0.623288
241.500 0.627202
242.500 0.658513
243.500 0.644814
244.500 0.658023
245.500 0.656067
246.500 0.647750
247.500 0.634051
248.500 0.634051
249.500 0.625245
250.500 0.664384
251.300 0.630137
251.800 0.616928
252.500 0.600783
253.500 0.603718
254.500 0.608121
255.500 0.639432
256.500 0.634540
257.500 0.655577
258.500 0.657045
259.500 0.649217
260.500 0.636008
261.500 0.622798
262.500 0.645793
263.500 0.658023
264.500 0.704501
265.500 0.709883
266.500 0.682485
267.500 0.697652
268.500 0.706458
269.500 0.681996
270.500 0.687378
271.500 0.662916
272.500 0.664384
273.500 0.681018
274.500 0.624266
275.500 0.641879
276.500 0.670254
277.500 0.689335
278.500 0.673190
279.500 0.534736
280.500 0.577789
281.500 0.703523
282.500 0.705969
283.500 0.696673
284.500 0.684442
285.500 0.649706
286.500 0.691292
287.500 0.691781
288.500 0.698630
289.500 0.700098
291.000 0.723581
293.000 0.712329
295.000 0.706458
297.000 0.709883
299.000 0.713796
301.000 0.716243
303.000 0.717710
305.000 0.720646
307.000 0.716243
309.000 0.716243
311.000 0.713796
313.000 0.711840
315.000 0.712329
317.000 0.716732
319.000 0.698630
321.000 0.709883
323.000 0.697652
325.000 0.714775
327.000 0.727984
329.000 0.728474
331.000 0.729452
332.200 0.596869
332.300 0.579256
332.400 0.579746
332.500 0.586106
332.600 0.581703
332.700 0.569472
332.800 0.581213
332.900 0.595401
333.000 0.613014
333.100 0.623777
333.200 0.618395
333.300 0.607632
333.400 0.590998
333.500 0.585127
333.600 0.572407
333.700 0.565068
333.800 0.573386
333.900 0.584149
334.000 0.591487
334.100 0.591977
334.200 0.589530
334.300 0.604207
334.400 0.620352
334.500 0.615949
334.600 0.602250
334.700 0.574853
334.800 0.552838
334.900 0.542564
335.000 0.563601
335.100 0.576810
335.200 0.569472
335.300 0.567515
335.400 0.572896
335.500 0.597847
335.600 0.607143
335.700 0.594912
335.800 0.564090
335.900 0.534736
336.000 0.516634
336.100 0.521526
336.200 0.543542
336.300 0.568004
336.400 0.585127
336.500 0.574364
336.600 0.560665
336.700 0.556262
336.800 0.551859
336.900 0.551370
337.000 0.532290
337.100 0.515656
337.200 0.511252
337.300 0.523483
337.400 0.542074
337.500 0.565558
337.600 0.586595
337.700 0.586106
337.800 0.571918
337.900 0.558708
338.000 0.555773
338.100 0.562133
338.200 0.564579
338.300 0.573875
338.400 0.582681
338.500 0.590020
338.600 0.586106
338.700 0.565068
338.800 0.552838
338.900 0.575832
339.000 0.594423
339.100 0.605675
339.200 0.591487
339.300 0.569472
339.400 0.579746
339.500 0.598337
339.600 0.616438
339.700 0.626223
339.800 0.634051
339.900 0.633562
340.000 0.626223
340.100 0.613503
340.200 0.592466
340.300 0.586106
340.400 0.582681
340.500 0.589530
340.600 0.587573
340.700 0.575342
340.800 0.563601
340.900 0.568982
341.000 0.588063
341.100 0.584638
341.200 0.580235
341.300 0.577789
341.400 0.584149
341.500 0.596869
341.600 0.597847
341.700 0.596380
341.800 0.600294
341.900 0.606654
342.000 0.614481
342.100 0.616928
342.200 0.607632
342.300 0.590509
342.400 0.581703
342.500 0.587573
342.600 0.592466
342.700 0.599315
342.800 0.611546
342.900 0.625734
343.000 0.634051
343.100 0.619863
343.200 0.601761
343.300 0.592466
343.400 0.602250
343.500 0.623288
343.600 0.628180
343.700 0.616438
343.800 0.604697
343.900 0.592955
344.000 0.586106
344.100 0.574364
344.200 0.567025
344.300 0.565558
344.400 0.572896
344.500 0.583170
344.600 0.598826
344.700 0.616438
344.800 0.629159
344.900 0.640411
345.000 0.626712
345.100 0.601272
345.200 0.579746
345.300 0.573875
345.400 0.587084
345.500 0.594912
345.600 0.592955
345.700 0.593444
345.800 0.592466
345.900 0.594423
346.000 0.588063
346.100 0.580235
346.200 0.585127
346.300 0.589041
346.400 0.590998
346.500 0.583659
346.600 0.586106
346.700 0.600783
346.800 0.620841
346.900 0.633562
347.000 0.636497
347.100 0.628180
347.200 0.616438
347.300 0.596380
347.400 0.583659
347.500 0.577299
347.600 0.580235
347.700 0.597847
347.800 0.614481
347.900 0.625245
348.000 0.633072
348.100 0.625734
348.200 0.614971
348.300 0.610078
348.400 0.611546
348.500 0.626223
348.600 0.640411
348.700 0.639922
348.800 0.628180
348.900 0.610568
349.000 0.598337
349.100 0.606164
349.200 0.619374
349.300 0.617906
349.400 0.613014
349.500 0.604697
349.600 0.596380
349.700 0.600783
349.800 0.597847
349.900 0.601272
350.000 0.599804
350.100 0.595890
350.200 0.599804
350.300 0.599804
350.400 0.601761
350.500 0.600294
350.600 0.599804
350.700 0.599315
350.800 0.592955
350.900 0.590509
351.000 0.589530
351.100 0.591487
351.200 0.592955
351.300 0.590509
351.400 0.591487
351.500 0.601272
351.600 0.618395
351.700 0.628180
351.800 0.627202
351.900 0.613503
352.000 0.603718
352.100 0.598337
352.200 0.594423
352.300 0.589530
352.400 0.581703
352.500 0.576321
352.600 0.581703
352.700 0.591977
352.800 0.606164
352.900 0.617906
353.000 0.629648
353.100 0.638454
353.200 0.635519
353.300 0.624755
353.400 0.618395
353.500 0.614971
353.600 0.621331
353.700 0.629159
353.800 0.631115
353.900 0.637476
354.000 0.638454
354.100 0.634051
354.200 0.636986
354.300 0.646282
354.400 0.651174
354.500 0.648239
354.600 0.643346
354.700 0.635519
354.800 0.632094
354.900 0.633072
355.000 0.639432
355.100 0.653131
355.200 0.648728
355.300 0.632583
355.400 0.623288
355.500 0.626223
355.600 0.636986
355.700 0.651663
355.800 0.656556
355.900 0.652642
356.000 0.646282
356.100 0.641879
356.200 0.639432
356.300 0.630137
356.400 0.617906
356.500 0.610568
356.600 0.608611
356.700 0.609100
356.800 0.602250
356.900 0.595890
357.000 0.591977
357.100 0.586595
357.200 0.584638
357.300 0.581703
357.400 0.583659
357.500 0.593444
357.600 0.600783
357.700 0.608611
357.800 0.615949
357.900 0.611057
358.000 0.601272
358.100 0.589530
358.200 0.585127
358.300 0.589530
358.400 0.582192
358.500 0.568004
358.600 0.549413
358.700 0.542074
358.800 0.553816
358.900 0.576810
359.000 0.594423
359.100 0.600294
359.200 0.597358
359.300 0.596869
359.400 0.600783
359.500 0.613503
359.600 0.622798
359.700 0.624755
359.800 0.625245
359.900 0.629648
360.000 0.632583
360.100 0.623288
360.200 0.612035
360.300 0.604697
360.400 0.608611
360.500 0.612035
360.600 0.612035
360.700 0.605186
360.800 0.599315
360.900 0.602740
361.000 0.604697
361.100 0.608611
361.200 0.613992
361.300 0.615949
361.400 0.621820
361.500 0.638943
361.600 0.642368
361.700 0.635029
361.800 0.618395
361.900 0.606654
362.000 0.616438
362.100 0.627691
362.200 0.633072
362.300 0.634051
362.400 0.638943
362.500 0.654599
362.600 0.672211
362.700 0.683953
362.800 0.675636
362.900 0.657534
363.000 0.631605
363.100 0.614971
363.200 0.621331
363.300 0.641389
363.400 0.649706
363.500 0.646771
363.600 0.642368
363.700 0.645303
363.800 0.653620
363.900 0.660959
364.000 0.662916
364.100 0.656067
364.200 0.643836
364.300 0.633562
364.400 0.628180
364.500 0.628180
364.600 0.627202
364.700 0.626223
364.800 0.627202
364.900 0.625734
365.000 0.625734
365.100 0.629648
365.200 0.640900
365.300 0.648728
365.400 0.659491
365.500 0.669765
365.600 0.677593
365.700 0.681018
365.800 0.678571
365.900 0.678571
366.000 0.677593
366.100 0.667808
366.200 0.659980
366.300 0.655577
366.400 0.658023
366.500 0.664873
366.600 0.665851
366.700 0.661937
366.800 0.653131
366.900 0.646282
367.000 0.646771
367.100 0.654599
367.200 0.666341
367.300 0.672211
367.400 0.667808
367.500 0.660959
367.600 0.645793
367.700 0.634051
367.800 0.630137
367.900 0.632094
368.000 0.639432
368.100 0.643346
368.200 0.641389
368.300 0.638454
368.400 0.633072
368.500 0.622798
368.600 0.620841
368.700 0.627691
368.800 0.650196
368.900 0.671233
369.000 0.667808
369.100 0.655577
369.200 0.651663
369.300 0.659491
369.400 0.669765
369.500 0.675147
369.600 0.663894
369.700 0.649706
369.800 0.661448
369.900 0.693249
370.000 0.727495
370.100 0.722603
370.200 0.678082
370.300 0.621331
370.400 0.594423
370.500 0.601272
370.600 0.631115
370.700 0.665851
370.800 0.683464
370.900 0.674168
371.000 0.639432
371.100 0.611057
371.200 0.596869
371.300 0.619863
371.400 0.672701
371.500 0.727006
371.600 0.765166
371.700 0.783268
371.800 0.765166
371.900 0.708415
372.000 0.628180
372.100 0.565558
372.200 0.546477
372.300 0.581213
372.400 0.657045
372.500 0.720157
372.600 0.762720
372.700 0.789628
372.800 0.802348
372.900 0.805284
373.000 0.789139
373.100 0.744129
373.200 0.664873
373.300 0.589041
373.400 0.524951
373.500 0.514677
373.600 0.557241
373.700 0.629159
373.800 0.705969
373.900 0.788650
374.000 0.832192
374.100 0.861057
374.200 0.861057
374.300 0.848337
374.400 0.819961
374.500 0.786204
374.600 0.748043
374.700 0.704012
374.800 0.640900
374.900 0.582192
375.000 0.554305
375.100 0.558708
375.200 0.601272
375.300 0.700098
375.400 0.782290
375.500 0.831703
375.600 0.860078
375.700 0.863992
375.800 0.863014
375.900 0.866438
376.000 0.878180
376.100 0.892368
376.200 0.893836
376.300 0.884051
376.400 0.870841
376.500 0.842466
376.600 0.807241
376.700 0.754892
376.800 0.675147
376.900 0.609100
377.000 0.549413
377.100 0.545988
377.200 0.591977
377.300 0.667808
377.400 0.726027
377.500 0.785714
377.600 0.828767
377.700 0.877202
377.800 0.928082
377.900 0.965264
378.000 1.005382
378.100 1.027886
378.200 1.039628
378.300 1.045010
378.400 1.047456
378.500 1.038650
378.600 1.028376
378.700 1.002446
378.800 0.981898
378.900 0.966243
379.000 0.945695
379.100 0.923190
379.200 0.880626
379.300 0.835127
379.400 0.774951
379.500 0.701076
379.600 0.627202
379.700 0.550391
379.800 0.522505
379.900 0.551859
380.000 0.628669
380.100 0.712818
380.200 0.799413
380.300 0.845401
380.400 0.899217
380.500 0.929061
380.600 0.957926
380.700 0.992172
380.800 1.019569
380.900 1.054795
381.000 1.076810
381.100 1.089041
381.200 1.082192
381.300 1.070939
381.400 1.059687
381.500 1.061155
381.600 1.080235
381.700 1.100783
381.800 1.102250
381.900 1.074853
382.000 1.053327
382.100 1.043542
382.200 1.044031
382.300 1.033757
382.400 1.001468
382.500 0.971624
382.600 0.940802
382.700 0.914384
382.800 0.877691
382.900 0.840509
383.000 0.805284
383.100 0.749022
383.200 0.694227
383.300 0.609589
383.400 0.541096
383.500 0.500000
383.600 0.501957
383.700 0.542564
383.800 0.609589
383.900 0.670744
384.000 0.734344
384.100 0.805773
384.200 0.864971
384.300 0.931018
384.400 0.971135
384.500 1.007339
384.600 1.040607
384.700 1.068982
384.800 1.091977
384.900 1.099315
385.000 1.107632
385.100 1.126223
385.200 1.153620
385.300 1.179061
385.400 1.183464
385.500 1.176614
385.600 1.165362
385.700 1.157045
385.800 1.151174
385.900 1.155577
386.000 1.171233
386.100 1.189335
386.200 1.203033
386.300 1.201566
386.400 1.191292
386.500 1.180528
386.600 1.181018
386.700 1.184932
386.800 1.188356
386.900 1.184932
387.000 1.166341
387.100 1.146771
387.200 1.115949
387.300 1.102250
387.400 1.095401
387.500 1.093933
387.600 1.084149
387.700 1.047456
387.800 1.018591
387.900 0.995108
388.000 0.982877
388.100 0.969667
388.200 0.936399
388.300 0.900196
388.400 0.843933
388.500 0.785714
388.600 0.709883
388.700 0.619863
388.800 0.557730
388.900 0.532290
389.000 0.564579
389.100 0.639432
389.200 0.717221
389.300 0.770059
389.400 0.823386
389.500 0.860078
389.600 0.909980
389.700 0.948141
389.800 0.977984
389.900 1.004403
390.000 1.023483
390.100 1.053816
390.200 1.077299
390.300 1.098337
390.400 1.107632
390.500 1.114971
390.600 1.134540
390.700 1.160470
390.800 1.191781
390.900 1.217710
391.000 1.232877
391.100 1.238748
391.200 1.235812
391.300 1.227006
391.400 1.217710
391.500 1.221135
391.600 1.231898
391.700 1.232387
391.800 1.230431
391.900 1.225538
392.000 1.224070
392.100 1.226517
392.200 1.227006
392.300 1.233855
392.400 1.234834
392.500 1.232877
392.600 1.217221
392.700 1.195695
392.800 1.159491
392.900 1.119863
393.000 1.058219
393.100 0.966732
393.200 0.850294
393.300 0.748043
393.400 0.739237
393.500 0.826321
393.600 0.945205
393.700 1.055284
393.800 1.137965
393.900 1.175636
394.000 1.195205
394.100 1.207926
394.200 1.211350
394.300 1.213307
394.400 1.211840
394.500 1.208904
394.600 1.208415
394.700 1.202055
394.800 1.190802
394.900 1.181507
395.000 1.176125
395.100 1.168297
395.200 1.161448
395.300 1.159491
395.400 1.150196
395.500 1.131605
395.600 1.111057
395.700 1.089041
395.800 1.077299
395.900 1.057730
396.000 1.025440
396.100 0.986301
396.200 0.934442
396.300 0.893836
396.400 0.835616
396.500 0.755871
396.600 0.652153
396.700 0.518102
396.800 0.426908
396.900 0.375832
397.000 0.400000
397.100 0.477642
397.200 0.582681
397.300 0.668787
397.400 0.757339
397.500 0.815068
397.600 0.875734
397.700 0.925147
397.800 0.969178
397.900 1.015656
398.000 1.039628
398.100 1.065068
398.200 1.084638
398.300 1.105186
398.400 1.129648
398.500 1.147260
398.600 1.167319
398.700 1.183953
398.800 1.201566
398.900 1.212818
399.000 1.219667
399.100 1.231409
399.200 1.237769
399.300 1.247554
399.400 1.252935
399.500 1.255382
399.600 1.250978
399.700 1.244129
399.800 1.242172
399.900 1.254892
400.000 1.268591
400.100 1.278376
400.200 1.279354
400.300 1.270059
400.400 1.261252
400.500 1.250489
400.600 1.254892
400.700 1.268102
400.800 1.283268
400.900 1.292564
401.000 1.297945
401.100 1.297945
401.200 1.295499
401.300 1.293053
401.400 1.292564
401.500 1.299902
401.600 1.307730
401.700 1.314090
401.800 1.323386
401.900 1.325832
402.000 1.325832
402.100 1.324364
402.200 1.321429
402.300 1.317025
402.400 1.308219
402.500 1.304795
402.600 1.306751
402.700 1.319961
402.800 1.323386
402.900 1.318493
403.000 1.306262
403.100 1.298434
403.200 1.295988
403.300 1.296477
403.400 1.303327
403.500 1.318004
403.600 1.334149
403.700 1.350783
403.800 1.349315
403.900 1.339530
404.000 1.328278
404.100 1.323875
404.200 1.329256
404.300 1.326810
404.400 1.303816
404.500 1.281800
404.600 1.273973
404.700 1.291585
404.800 1.313601
404.900 1.325342
405.000 1.326321
405.100 1.330235
405.200 1.329256
405.300 1.317515
405.400 1.302838
405.500 1.298434
405.600 1.302838
405.700 1.310665
405.800 1.313112
405.900 1.321429
406.000 1.327299
406.100 1.317025
406.200 1.293542
406.300 1.270059
406.400 1.263699
406.500 1.262720
406.600 1.263209
406.700 1.263209
406.800 1.263209
406.900 1.263699
407.000 1.251468
407.100 1.226027
407.200 1.213796
407.300 1.219178
407.400 1.227006
407.500 1.226027
407.600 1.206458
407.700 1.188356
407.800 1.179550
407.900 1.189824
408.000 1.203033
408.100 1.203523
408.200 1.200098
408.300 1.188356
408.400 1.179061
408.500 1.166341
408.600 1.157534
408.700 1.151663
408.800 1.140900
408.900 1.131115
409.000 1.108121
409.100 1.089041
409.200 1.076321
409.300 1.046477
409.400 1.021037
409.500 0.972603
409.600 0.930039
409.700 0.885029
409.800 0.824364
409.900 0.760274
410.000 0.662916
410.100 0.602250
410.200 0.585127
410.300 0.637476
410.400 0.714286
410.500 0.799902
410.600 0.848337
410.700 0.898239
410.800 0.933953
410.900 0.966243
411.000 1.005871
411.100 1.031311
411.200 1.062133
411.300 1.084638
411.400 1.105675
411.500 1.126712
411.600 1.142368
411.700 1.152642
411.800 1.157534
411.900 1.160959
412.000 1.165851
412.100 1.175636
412.200 1.186888
412.300 1.199119
412.400 1.213307
412.500 1.221624
412.600 1.225049
412.700 1.225538
412.800 1.225538
412.900 1.228963
413.000 1.226517
413.100 1.218689
413.200 1.216243
413.300 1.221624
413.400 1.237769
413.500 1.250000
413.600 1.258806
413.700 1.269080
413.800 1.278376
413.900 1.286204
414.000 1.284736
414.100 1.271526
414.200 1.257339
414.300 1.243151
414.400 1.246575
414.500 1.255382
414.600 1.267613
414.700 1.269569
414.800 1.270548
414.900 1.272505
415.000 1.276419
415.100 1.283757
415.200 1.282779
415.300 1.276908
415.400 1.269080
415.500 1.263699
