# Wavelength (nm)   F_lamA (normalized erg/cm2/s/A)9.100 0.000012
9.400 0.000021
9.600 0.000030
9.800 0.000042
10.000 0.000058
10.200 0.000080
10.400 0.000107
10.600 0.000143
10.800 0.000187
11.000 0.000244
11.400 0.000399
11.800 0.000632
12.100 0.000873
12.500 0.001309
12.700 0.001586
12.800 0.001742
13.100 0.002286
13.200 0.002496
13.400 0.002963
13.700 0.003794
14.000 0.004804
14.300 0.006021
14.700 0.008013
15.100 0.010497
15.500 0.013553
15.900 0.017264
16.200 0.020528
16.600 0.025591
17.000 0.031560
17.300 0.036686
17.700 0.044447
18.000 0.051025
18.200 0.055792
18.600 0.066289
19.100 0.081258
19.400 0.091384
19.800 0.106164
20.200 0.122453
20.500 0.135786
21.000 0.160063
21.600 0.192704
22.000 0.216730
22.300 0.235849
22.700 0.263019
23.000 6.496855
23.400 7.283019
24.000 9.371069
24.600 12.666667
25.200 15.949686
25.700 12.685535
26.000 17.716981
26.400 22.364780
26.900 23.056604
27.400 23.528302
27.900 22.050314
28.400 24.238994
29.000 24.226415
29.600 21.905660
30.100 14.308176
30.800 17.672956
31.800 22.723270
32.800 22.786164
33.800 22.163522
34.800 21.610063
35.700 22.289308
36.600 23.251572
37.500 22.805031
38.500 21.125786
39.500 22.213836
40.500 22.572327
41.400 22.301887
42.200 21.628931
43.000 21.125786
44.100 21.484277
45.100 21.213836
46.000 20.484277
47.000 20.138365
48.000 20.113208
49.000 19.314465
50.000 19.515723
50.600 21.201258
51.200 26.641509
52.000 25.930818
53.000 25.245283
54.000 23.522013
55.000 23.194969
56.000 24.584906
57.000 24.371069
58.000 23.522013
59.000 23.503145
60.000 22.622642
61.000 21.987421
62.000 22.672956
63.000 22.119497
64.000 22.025157
65.000 21.490566
65.800 20.874214
66.500 21.075472
67.500 20.962264
68.500 20.018868
69.500 20.276730
70.500 19.276730
71.600 19.735849
72.600 19.490566
73.500 19.276730
74.500 18.836478
75.500 18.496855
76.500 17.962264
77.500 17.911950
78.500 17.616352
79.500 17.408805
80.500 17.207547
81.500 17.018868
82.500 16.830189
83.500 15.911950
84.500 16.308176
85.500 16.018868
86.500 15.918239
87.500 15.710692
88.500 15.484277
89.500 15.257862
90.500 14.924528
91.500 15.396226
92.500 29.194969
93.500 41.213836
94.500 58.358491
95.500 64.779874
96.500 74.213836
97.500 45.251572
98.500 73.522013
99.500 69.433962
100.500 72.452830
101.500 68.490566
102.500 43.874214
103.500 63.270440
104.500 70.188679
105.500 68.679245
106.500 64.402516
107.500 65.031447
108.500 60.220126
109.500 63.270440
110.500 60.867925
111.500 59.761006
112.500 56.540881
113.500 57.628931
114.500 55.408805
115.500 54.823899
116.500 53.905660
117.500 47.333333
118.500 50.937107
119.500 48.459119
120.500 44.559748
121.500 29.761006
122.500 43.295597
123.500 45.672956
124.500 45.194969
125.500 44.641509
126.500 43.666667
127.500 43.433962
128.500 42.679245
129.500 40.679245
130.500 40.094340
131.500 40.251572
132.500 39.075472
133.500 37.886792
134.500 37.817610
135.500 37.169811
136.500 36.132075
137.500 35.433962
138.500 34.911950
139.500 32.389937
140.500 31.540881
141.500 32.937107
142.500 32.062893
143.500 31.761006
144.200 31.433962
144.700 31.106918
145.500 30.553459
146.500 29.930818
147.500 29.408805
148.500 28.943396
149.500 28.358491
150.500 27.704403
151.200 27.176101
151.700 27.037736
152.500 26.610063
153.500 25.452830
154.500 24.566038
155.500 24.094340
156.500 24.308176
157.500 24.213836
158.500 23.924528
159.500 23.591195
160.500 22.767296
161.500 22.358491
162.500 22.044025
163.500 21.716981
164.500 20.949686
165.500 21.182390
166.500 20.981132
167.200 20.433962
167.700 20.729560
168.500 20.433962
169.500 20.018868
170.500 19.584906
171.500 19.075472
172.500 18.805031
173.500 18.754717
174.500 18.377358
175.500 18.157233
176.500 17.691824
177.500 17.534591
178.500 17.320755
179.500 17.094340
180.500 16.880503
181.500 16.503145
182.500 16.295597
183.500 16.044025
184.500 15.540881
185.500 15.232704
186.500 15.106918
187.500 15.031447
188.500 14.534591
189.500 14.176101
190.500 14.251572
191.500 13.874214
192.500 13.578616
193.500 13.578616
194.500 13.509434
195.500 13.044025
196.700 13.062893
197.600 13.012579
198.400 12.710692
199.500 12.396226
200.500 12.371069
201.500 12.245283
202.500 12.144654
203.500 11.867925
204.500 11.704403
205.500 10.465409
206.500 10.754717
207.400 11.371069
207.800 11.194969
208.500 11.144654
209.500 10.924528
210.500 10.867925
211.500 10.773585
212.500 10.666667
213.500 10.490566
214.500 10.314465
215.500 10.257862
216.500 10.050314
217.500 9.962264
218.500 9.792453
219.500 9.735849
220.500 9.584906
221.500 9.396226
222.500 9.295597
223.500 9.213836
224.500 9.088050
225.500 8.893082
226.500 8.842767
227.500 8.742138
228.500 8.635220
229.500 8.433962
230.500 8.345912
231.500 8.283019
232.500 7.836478
233.500 8.050314
234.500 7.918239
235.500 7.867925
236.500 7.735849
237.500 7.654088
238.500 7.459119
239.500 7.459119
240.500 7.358491
241.500 7.270440
242.500 7.207547
243.500 7.094340
244.500 7.025157
245.500 6.943396
246.500 6.849057
247.500 6.767296
248.500 6.698113
249.500 6.452830
250.500 6.540881
251.300 6.308176
251.800 6.421384
252.500 6.358491
253.500 6.277987
254.500 6.198113
255.500 6.158491
256.500 6.081132
257.500 6.028931
258.500 5.961635
259.500 5.888050
260.500 5.813208
261.500 5.744025
262.500 5.687421
263.500 5.623899
264.500 5.601258
265.500 5.537107
266.500 5.457233
267.500 5.403774
268.500 5.362893
269.500 5.272327
270.500 5.237107
271.500 5.169811
272.500 5.088679
273.500 5.020755
274.500 4.972956
275.500 4.923899
276.500 4.864780
277.500 4.850314
278.500 4.793082
279.500 4.678616
280.500 4.662264
281.500 4.650314
282.500 4.577358
283.500 4.525157
284.500 4.493082
285.500 4.444654
286.500 4.408176
287.500 4.359119
288.500 4.316981
289.500 4.272327
291.000 4.212579
293.000 4.120755
295.000 4.019497
297.000 3.957862
299.000 3.877358
301.000 3.790566
303.000 3.704403
305.000 3.620126
307.000 3.537736
309.000 3.457862
311.000 3.381761
313.000 3.304403
315.000 3.233962
317.000 3.164780
319.000 3.076101
321.000 3.018868
323.000 2.964151
325.000 2.904403
327.000 2.847799
329.000 2.787421
331.000 2.733962
332.200 2.728931
332.300 2.745912
332.400 2.727673
332.500 2.716352
332.600 2.701258
332.700 2.694340
332.800 2.688679
332.900 2.688050
333.000 2.685535
333.100 2.682390
333.200 2.670440
333.300 2.645912
333.400 2.630818
333.500 2.618868
333.600 2.613836
333.700 2.600000
333.800 2.571069
333.900 2.559748
334.000 2.548428
334.100 2.576101
334.200 2.596855
334.300 2.641509
334.400 2.669811
334.500 2.691824
334.600 2.718239
334.700 2.725786
334.800 2.688050
334.900 2.618239
335.000 2.509434
335.100 2.508805
335.200 2.543396
335.300 2.561006
335.400 2.553459
335.500 2.530189
335.600 2.529560
335.700 2.537736
335.800 2.550943
335.900 2.561006
336.000 2.574214
336.100 2.566667
336.200 2.569182
336.300 2.552201
336.400 2.545283
336.500 2.518868
336.600 2.496226
336.700 2.476101
336.800 2.468553
336.900 2.479874
337.000 2.515723
337.100 2.517610
337.200 2.484906
337.300 2.472327
337.400 2.479874
337.500 2.519497
337.600 2.534591
337.700 2.495597
337.800 2.481761
337.900 2.477987
338.000 2.509434
338.100 2.538365
338.200 2.554717
338.300 2.550943
338.400 2.540252
338.500 2.546541
338.600 2.558491
338.700 2.559748
338.800 2.553459
338.900 2.540252
339.000 2.543396
339.100 2.549057
339.200 2.560377
339.300 2.566038
339.400 2.588679
339.500 2.589937
339.600 2.576730
339.700 2.541509
339.800 2.513836
339.900 2.460377
340.000 2.433962
340.100 2.454088
340.200 2.436478
340.300 2.421384
340.400 2.422642
340.500 2.428302
340.600 2.420755
340.700 2.433333
340.800 2.449686
340.900 2.461635
341.000 2.461006
341.100 2.421384
341.200 2.424528
341.300 2.449057
341.400 2.479245
341.500 2.494340
341.600 2.494340
341.700 2.491195
341.800 2.496226
341.900 2.503774
342.000 2.501258
342.100 2.497484
342.200 2.487421
342.300 2.486164
342.400 2.486164
342.500 2.479874
342.600 2.491195
342.700 2.495597
342.800 2.505660
342.900 2.504403
343.000 2.479245
343.100 2.481761
343.200 2.479874
343.300 2.489308
343.400 2.491195
343.500 2.493711
343.600 2.497484
343.700 2.491195
343.800 2.489937
343.900 2.476730
344.000 2.440252
344.100 2.422013
344.200 2.418239
344.300 2.439623
344.400 2.452201
344.500 2.435220
344.600 2.428302
344.700 2.425786
344.800 2.445912
344.900 2.461635
345.000 2.405660
345.100 2.362264
345.200 2.342138
345.300 2.340881
345.400 2.351572
345.500 2.352830
345.600 2.354088
345.700 2.353459
345.800 2.349057
345.900 2.345912
346.000 2.338994
346.100 2.335220
346.200 2.344654
346.300 2.393082
346.400 2.366667
346.500 2.367925
346.600 2.379245
346.700 2.377358
346.800 2.368553
346.900 2.361006
347.000 2.369811
347.100 2.352201
347.200 2.347799
347.300 2.362264
347.400 2.368553
347.500 2.361635
347.600 2.346541
347.700 2.301887
347.800 2.261635
347.900 2.242767
348.000 2.259119
348.100 2.288679
348.200 2.274214
348.300 2.249686
348.400 2.252201
348.500 2.293082
348.600 2.322642
348.700 2.340252
348.800 2.371069
348.900 2.375472
349.000 2.362893
349.100 2.358491
349.200 2.375472
349.300 2.376730
349.400 2.365409
349.500 2.350943
349.600 2.338994
349.700 2.344025
349.800 2.355346
349.900 2.343396
350.000 2.301887
350.100 2.274843
350.200 2.283648
350.300 2.294340
350.400 2.275472
350.500 2.248428
350.600 2.238365
350.700 2.245283
350.800 2.265409
350.900 2.269811
351.000 2.273585
351.100 2.274214
351.200 2.267296
351.300 2.252830
351.400 2.255346
351.500 2.268553
351.600 2.279245
351.700 2.270440
351.800 2.269182
351.900 2.276730
352.000 2.281132
352.100 2.273585
352.200 2.262893
352.300 2.264780
352.400 2.283019
352.500 2.275472
352.600 2.268553
352.700 2.263522
352.800 2.266667
352.900 2.279245
353.000 2.289937
353.100 2.297484
353.200 2.310063
353.300 2.298742
353.400 2.276101
353.500 2.270440
353.600 2.272327
353.700 2.257233
353.800 2.254717
353.900 2.254717
354.000 2.266667
354.100 2.274214
354.200 2.276101
354.300 2.274214
354.400 2.281132
354.500 2.285535
354.600 2.279245
354.700 2.284906
354.800 2.289937
354.900 2.285535
355.000 2.277358
355.100 2.274214
355.200 2.282390
355.300 2.288050
355.400 2.281132
355.500 2.272956
355.600 2.264151
355.700 2.266038
355.800 2.267296
355.900 2.261635
356.000 2.254088
356.100 2.262893
356.200 2.272327
356.300 2.266038
356.400 2.250314
356.500 2.247170
356.600 2.252201
356.700 2.240252
356.800 2.248428
356.900 2.239623
357.000 2.214465
357.100 2.159748
357.200 2.138994
357.300 2.139623
357.400 2.138365
357.500 2.141509
357.600 2.155346
357.700 2.152830
357.800 2.144025
357.900 2.137736
358.000 2.143396
358.100 2.153459
358.200 2.151572
358.300 2.142767
358.400 2.138994
358.500 2.133333
358.600 2.127673
358.700 2.121384
358.800 2.112579
358.900 2.116352
359.000 2.132075
359.100 2.134591
359.200 2.124528
359.300 2.123899
359.400 2.127673
359.500 2.129560
359.600 2.126415
359.700 2.130189
359.800 2.136478
359.900 2.140252
360.000 2.150943
360.100 2.149686
360.200 2.157233
360.300 2.149686
360.400 2.139623
360.500 2.134591
360.600 2.135220
360.700 2.137736
360.800 2.147170
360.900 2.156604
361.000 2.160377
361.100 2.143396
361.200 2.137736
361.300 2.130818
361.400 2.120755
361.500 2.116352
361.600 2.127673
361.700 2.137107
361.800 2.152830
361.900 2.166038
362.000 2.152201
362.100 2.149057
362.200 2.166667
362.300 2.167925
362.400 2.159748
362.500 2.160377
362.600 2.171698
362.700 2.179874
362.800 2.173585
362.900 2.160377
363.000 2.162264
363.100 2.165409
363.200 2.162264
363.300 2.157862
363.400 2.175472
363.500 2.167296
363.600 2.120755
363.700 2.103145
363.800 2.105660
363.900 2.108176
364.000 2.113208
364.100 2.120755
364.200 2.128931
364.300 2.120126
364.400 2.103145
364.500 2.100629
364.600 2.093082
364.700 2.094969
364.800 2.100000
364.900 2.101258
365.000 2.100629
365.100 2.094340
365.200 2.089937
365.300 2.086792
365.400 2.084277
365.500 2.086792
365.600 2.094340
365.700 2.089308
365.800 2.079874
365.900 2.072327
366.000 2.062264
366.100 2.064151
366.200 2.063522
366.300 2.072327
366.400 2.074843
366.500 2.065409
366.600 2.061635
366.700 2.054717
366.800 2.052830
366.900 2.059748
367.000 2.065409
367.100 2.062893
367.200 2.056604
367.300 2.045912
367.400 2.040881
367.500 2.032704
367.600 2.038365
367.700 2.032075
367.800 2.025786
367.900 2.025157
368.000 2.028302
368.100 2.039623
368.200 2.037107
368.300 2.033333
368.400 2.031447
368.500 2.021384
368.600 2.005660
368.700 2.005031
368.800 2.029560
368.900 2.061006
369.000 2.050943
369.100 2.014465
369.200 2.018868
369.300 2.046541
369.400 2.070440
369.500 2.059748
369.600 2.013836
369.700 1.989308
369.800 1.991195
369.900 2.046541
370.000 2.105031
370.100 2.109434
370.200 2.049057
370.300 1.945283
370.400 1.896855
370.500 1.897484
370.600 1.971698
370.700 2.042767
370.800 2.100000
370.900 2.071698
371.000 1.993711
371.100 1.908176
371.200 1.861635
371.300 1.888050
371.400 1.968553
371.500 2.094340
371.600 2.161635
371.700 2.191195
371.800 2.179245
371.900 2.094340
372.000 1.945912
372.100 1.861635
372.200 1.814465
372.300 1.863522
372.400 1.957862
372.500 2.076101
372.600 2.125157
372.700 2.189937
372.800 2.216352
372.900 2.223899
373.000 2.201887
373.100 2.127044
373.200 1.994340
373.300 1.870440
373.400 1.767296
373.500 1.754717
373.600 1.827044
373.700 1.972327
373.800 2.079245
373.900 2.203145
374.000 2.262893
374.100 2.301258
374.200 2.306289
374.300 2.286792
374.400 2.262893
374.500 2.223899
374.600 2.149686
374.700 2.037107
374.800 1.908805
374.900 1.750314
375.000 1.705660
375.100 1.740881
375.200 1.852830
375.300 1.961006
375.400 2.087421
375.500 2.152201
375.600 2.213208
375.700 2.222642
375.800 2.215094
375.900 2.199371
376.000 2.184906
376.100 2.180503
376.200 2.223899
376.300 2.237107
376.400 2.218239
376.500 2.172956
376.600 2.103774
376.700 2.027044
376.800 1.901887
376.900 1.756604
377.000 1.647799
377.100 1.611950
377.200 1.705660
377.300 1.852830
377.400 1.974843
377.500 2.076730
377.600 2.150314
377.700 2.198742
377.800 2.243396
377.900 2.265409
378.000 2.288679
378.100 2.303145
378.200 2.313836
378.300 2.303145
378.400 2.294969
378.500 2.303145
378.600 2.301887
378.700 2.294340
378.800 2.284277
378.900 2.264780
379.000 2.236478
379.100 2.201887
379.200 2.157233
379.300 2.101887
379.400 2.028931
379.500 1.897484
379.600 1.752830
379.700 1.606289
379.800 1.540252
379.900 1.602516
380.000 1.765409
380.100 1.903774
380.200 2.027673
380.300 2.097484
380.400 2.149686
380.500 2.195597
380.600 2.210063
380.700 2.230818
380.800 2.254088
380.900 2.278616
381.000 2.301258
381.100 2.313836
381.200 2.303145
381.300 2.283019
381.400 2.267925
381.500 2.262264
381.600 2.255346
381.700 2.245283
381.800 2.215723
381.900 2.176730
382.000 2.155975
382.100 2.164780
382.200 2.213208
382.300 2.227673
382.400 2.221384
382.500 2.202516
382.600 2.172956
382.700 2.161635
382.800 2.138365
382.900 2.094969
383.000 2.042767
383.100 1.967296
383.200 1.871698
383.300 1.733962
383.400 1.555975
383.500 1.474214
383.600 1.474843
383.700 1.584277
383.800 1.726415
383.900 1.876101
384.000 1.968553
384.100 2.052830
384.200 2.103145
384.300 2.156604
384.400 2.193082
384.500 2.221384
384.600 2.229560
384.700 2.235849
384.800 2.235849
384.900 2.237736
385.000 2.241509
385.100 2.259748
385.200 2.272956
385.300 2.265409
385.400 2.244025
385.500 2.223899
385.600 2.210063
385.700 2.215094
385.800 2.237107
385.900 2.259119
386.000 2.269811
386.100 2.265409
386.200 2.235849
386.300 2.188679
386.400 2.184906
386.500 2.190566
386.600 2.193082
386.700 2.205660
386.800 2.213836
386.900 2.213836
387.000 2.206289
387.100 2.187421
387.200 2.169811
387.300 2.169182
387.400 2.182390
387.500 2.194969
387.600 2.186792
387.700 2.168553
387.800 2.157233
387.900 2.149686
388.000 2.144654
388.100 2.115723
388.200 2.072327
388.300 2.030189
388.400 1.980503
388.500 1.894340
388.600 1.774214
388.700 1.601258
388.800 1.450943
388.900 1.386792
389.000 1.452201
389.100 1.606289
389.200 1.783019
389.300 1.899371
389.400 1.986792
389.500 2.040252
389.600 2.083019
389.700 2.120755
389.800 2.139623
389.900 2.148428
390.000 2.154088
390.100 2.173585
390.200 2.196226
390.300 2.210692
390.400 2.213836
390.500 2.205660
390.600 2.196226
390.700 2.204403
390.800 2.229560
390.900 2.245283
391.000 2.242767
391.100 2.245912
391.200 2.242138
391.300 2.225786
391.400 2.215723
391.500 2.220755
391.600 2.230189
391.700 2.232704
391.800 2.223270
391.900 2.201887
392.000 2.196226
392.100 2.195597
392.200 2.186164
392.300 2.164151
392.400 2.157233
392.500 2.167296
392.600 2.164151
392.700 2.172956
392.800 2.172956
392.900 2.170440
393.000 2.161006
393.100 2.113836
393.200 1.980503
393.300 1.803774
393.400 1.808176
393.500 1.952830
393.600 2.082390
393.700 2.143396
393.800 2.171069
393.900 2.186164
394.000 2.202516
394.100 2.213836
394.200 2.212579
394.300 2.191824
394.400 2.172956
394.500 2.152830
394.600 2.143396
394.700 2.149686
394.800 2.155346
394.900 2.154088
395.000 2.147170
395.100 2.136478
395.200 2.128302
395.300 2.125157
395.400 2.123899
395.500 2.110692
395.600 2.093711
395.700 2.082390
395.800 2.079874
395.900 2.076730
396.000 2.060377
396.100 2.037736
396.200 2.003145
396.300 1.960377
396.400 1.905660
396.500 1.835220
396.600 1.732704
396.700 1.530189
396.800 1.313208
396.900 1.197484
397.000 1.196226
397.100 1.306289
397.200 1.476101
397.300 1.627044
397.400 1.753459
397.500 1.842138
397.600 1.902516
397.700 1.945912
397.800 1.963522
397.900 1.996855
398.000 2.017610
398.100 2.035849
398.200 2.044025
398.300 2.045912
398.400 2.056604
398.500 2.067296
398.600 2.058491
398.700 2.035220
398.800 2.076730
398.900 2.089308
399.000 2.099371
399.100 2.104403
399.200 2.102516
399.300 2.100629
399.400 2.091824
399.500 2.095597
399.600 2.089308
399.700 2.086792
399.800 2.090566
399.900 2.096855
400.000 2.080503
400.100 2.065409
400.200 2.062264
400.300 2.059119
400.400 2.061635
400.500 2.066038
400.600 2.068553
400.700 2.066667
400.800 2.061006
400.900 2.047799
401.000 2.044654
401.100 2.058491
401.200 2.069811
401.300 2.077358
401.400 2.080503
401.500 2.081761
401.600 2.086792
401.700 2.097484
401.800 2.105660
401.900 2.111321
402.000 2.106289
402.100 2.095597
402.200 2.084277
402.300 2.049057
402.400 1.991195
402.500 1.937736
402.600 1.921384
402.700 1.954088
402.800 2.011950
402.900 2.049686
403.000 2.081132
403.100 2.086164
403.200 2.086792
403.300 2.083019
403.400 2.082390
403.500 2.088050
403.600 2.093711
403.700 2.093082
403.800 2.093082
403.900 2.089308
404.000 2.093082
404.100 2.100629
404.200 2.094340
404.300 2.084277
404.400 2.073585
404.500 2.062264
404.600 2.058491
404.700 2.067925
404.800 2.077987
404.900 2.084906
405.000 2.084277
405.100 2.081132
405.200 2.083019
405.300 2.074214
405.400 2.072956
405.500 2.081132
405.600 2.080503
405.700 2.081132
405.800 2.084277
405.900 2.086164
406.000 2.084277
406.100 2.071069
406.200 2.057862
406.300 2.049686
406.400 2.018239
406.500 1.949057
406.600 1.961006
406.700 1.983019
406.800 1.984277
406.900 1.977987
407.000 1.966038
407.100 1.956604
407.200 1.957233
407.300 1.954088
407.400 1.958491
407.500 1.955975
407.600 1.943396
407.700 1.933962
407.800 1.935220
407.900 1.950943
408.000 1.963522
408.100 1.968553
408.200 1.966038
408.300 1.959748
408.400 1.943396
408.500 1.936478
408.600 1.929560
408.700 1.936478
408.800 1.937107
408.900 1.931447
409.000 1.913208
409.100 1.899371
409.200 1.887421
409.300 1.864780
409.400 1.835849
409.500 1.788679
409.600 1.737736
409.700 1.683019
409.800 1.589308
409.900 1.474214
410.000 1.331447
410.100 1.204403
410.200 1.179874
410.300 1.267925
410.400 1.423899
410.500 1.571698
410.600 1.664780
410.700 1.722642
410.800 1.768553
410.900 1.793082
411.000 1.816352
411.100 1.836478
411.200 1.856604
411.300 1.872956
411.400 1.891824
411.500 1.908176
411.600 1.920126
411.700 1.915094
411.800 1.898742
411.900 1.888050
412.000 1.879245
412.100 1.881761
412.200 1.888050
412.300 1.900629
412.400 1.911321
412.500 1.920126
412.600 1.910063
412.700 1.888679
412.800 1.869811
412.900 1.861006
413.000 1.863522
413.100 1.874843
413.200 1.886164
413.300 1.897484
413.400 1.915094
413.500 1.923899
413.600 1.926415
413.700 1.925786
413.800 1.930189
413.900 1.931447
414.000 1.932075
414.100 1.925786
414.200 1.903774
414.300 1.883648
