# Wavelength (nm)   F_lamA (normalized erg/cm2/s/A)9.100 0.000023
9.400 0.000034
9.600 0.000044
9.800 0.000056
10.000 0.000071
10.200 0.000089
10.400 0.000110
10.600 0.000135
10.800 0.000164
11.000 0.000198
11.400 0.000281
11.800 0.000387
12.100 0.000484
12.500 0.000640
12.700 0.000729
12.800 0.000777
13.100 0.000935
13.200 0.000992
13.400 0.001112
13.700 0.001311
14.000 0.001533
14.300 0.001776
14.700 0.002138
15.100 0.002539
15.500 0.002984
15.900 0.003470
16.200 0.003860
16.600 0.004414
17.000 0.005007
17.300 0.005476
17.700 0.006130
18.000 0.006641
18.200 0.006991
18.600 0.007711
19.100 0.008650
19.400 0.009228
19.800 0.010016
20.200 0.010823
20.500 0.011436
21.000 0.012473
21.600 0.013731
22.000 0.014575
22.300 0.015209
22.700 0.016054
23.000 0.143863
23.400 0.142618
24.000 0.141536
24.600 0.141284
25.200 0.140409
25.700 0.133961
26.000 0.136733
26.400 0.136674
26.900 0.134361
27.400 0.132197
27.900 0.128906
28.400 0.127335
29.000 0.124192
29.600 0.119804
30.100 0.112052
30.800 0.110332
31.800 0.109561
32.800 0.105188
33.800 0.100445
34.800 0.095968
35.700 0.092647
36.600 0.089505
37.500 0.085947
38.500 0.081411
39.500 0.078728
40.500 0.075749
41.400 0.072873
42.200 0.070175
43.000 0.067788
44.100 0.065076
45.100 0.062407
46.000 0.059902
47.000 0.057456
48.000 0.055307
49.000 0.052876
50.000 0.051052
50.600 0.050919
51.200 0.052535
52.000 0.050845
53.000 0.048962
54.000 0.046516
55.000 0.044871
56.000 0.044026
57.000 0.042559
58.000 0.040854
59.000 0.039638
60.000 0.038097
61.000 0.036614
62.000 0.035829
63.000 0.034569
64.000 0.033575
65.000 0.032419
65.800 0.031426
66.500 0.030937
67.500 0.030062
68.500 0.028862
69.500 0.028254
70.500 0.027098
71.600 0.026534
72.600 0.025808
73.500 0.025156
74.500 0.024370
75.500 0.023658
76.500 0.022888
77.500 0.022369
78.500 0.021731
79.500 0.021168
80.500 0.020649
81.500 0.020130
82.500 0.019626
83.500 0.018841
84.500 0.018633
85.500 0.018144
86.500 0.017744
87.500 0.017329
88.500 0.016899
89.500 0.016499
90.500 0.016039
91.500 0.018900
92.500 0.027127
93.500 0.035102
94.500 0.047213
95.500 0.051275
96.500 0.057353
97.500 0.038037
98.500 0.057071
99.500 0.054447
100.500 0.056315
101.500 0.053395
102.500 0.035725
103.500 0.049348
104.500 0.054180
105.500 0.053202
106.500 0.050326
107.500 0.050830
108.500 0.047584
109.500 0.049540
110.500 0.047865
111.500 0.047124
112.500 0.045034
113.500 0.045568
114.500 0.044041
115.500 0.043641
116.500 0.043048
117.500 0.038942
118.500 0.040839
119.500 0.038452
120.500 0.035339
121.500 0.023866
122.500 0.034435
123.500 0.036555
124.500 0.036525
125.500 0.036259
126.500 0.035503
127.500 0.035532
128.500 0.035117
129.500 0.033739
130.500 0.033309
131.500 0.033650
132.500 0.032983
133.500 0.032212
134.500 0.032671
135.500 0.032419
136.500 0.032227
137.500 0.032286
138.500 0.032523
139.500 0.032004
140.500 0.032167
141.500 0.034139
142.500 0.034094
143.500 0.034806
144.200 0.036777
144.700 0.035458
145.500 0.038037
146.500 0.036629
147.500 0.038438
148.500 0.039683
149.500 0.041032
150.500 0.043819
151.200 0.044723
151.700 0.042766
152.500 0.046190
153.500 0.049881
154.500 0.050460
155.500 0.056804
156.500 0.056715
157.500 0.066884
158.500 0.076401
159.500 0.080166
160.500 0.072562
161.500 0.085636
162.500 0.086688
163.500 0.090409
164.500 0.110554
165.500 0.091966
166.500 0.129825
167.200 0.115461
167.700 0.136095
168.500 0.146472
169.500 0.144263
170.500 0.151052
171.500 0.163949
172.500 0.165580
173.500 0.177438
174.500 0.176253
175.500 0.187667
176.500 0.170768
177.500 0.186777
178.500 0.191373
179.500 0.204714
180.500 0.226801
181.500 0.229173
182.500 0.220723
183.500 0.229321
184.500 0.210643
185.500 0.223836
186.500 0.235547
187.500 0.236436
188.500 0.239698
189.500 0.247851
190.500 0.242366
191.500 0.253928
192.500 0.260599
193.500 0.245775
194.500 0.269345
195.500 0.271568
196.700 0.283872
197.600 0.276905
198.400 0.277201
199.500 0.277942
200.500 0.269197
201.500 0.276164
202.500 0.260895
203.500 0.287281
204.500 0.299437
205.500 0.295138
206.500 0.294100
207.400 0.314853
207.800 0.315594
208.500 0.314557
209.500 0.308627
210.500 0.304477
211.500 0.314557
212.500 0.315594
213.500 0.298844
214.500 0.320931
215.500 0.318114
216.500 0.305959
217.500 0.308331
218.500 0.321376
219.500 0.342277
220.500 0.333679
221.500 0.317373
222.500 0.329084
223.500 0.358879
224.500 0.341832
225.500 0.327157
226.500 0.317966
227.500 0.339905
228.500 0.350133
229.500 0.333827
230.500 0.351171
231.500 0.353691
232.500 0.323451
233.500 0.343463
234.500 0.309220
235.500 0.362733
236.500 0.324933
237.500 0.350726
238.500 0.300919
239.500 0.334865
240.500 0.330714
241.500 0.335755
242.500 0.375334
243.500 0.366736
244.500 0.381856
245.500 0.380670
246.500 0.381263
247.500 0.364068
248.500 0.356063
249.500 0.355025
250.500 0.400385
251.300 0.361251
251.800 0.337830
252.500 0.328787
253.500 0.342573
254.500 0.347762
255.500 0.383931
256.500 0.382152
257.500 0.408687
258.500 0.410021
259.500 0.405129
260.500 0.391639
261.500 0.378150
262.500 0.411800
263.500 0.429291
264.500 0.480878
265.500 0.492736
266.500 0.462052
267.500 0.482360
268.500 0.495998
269.500 0.465461
270.500 0.476134
271.500 0.446190
272.500 0.449600
273.500 0.470946
274.500 0.410614
275.500 0.435962
276.500 0.471390
277.500 0.491106
278.500 0.469760
279.500 0.309369
280.500 0.355470
281.500 0.515268
282.500 0.522087
283.500 0.514379
284.500 0.498073
285.500 0.445004
286.500 0.511711
287.500 0.515861
288.500 0.525645
289.500 0.531130
291.000 0.562407
293.000 0.554551
295.000 0.548621
297.000 0.553958
299.000 0.562852
301.000 0.567151
303.000 0.573377
305.000 0.583160
307.000 0.581530
309.000 0.582864
311.000 0.585680
313.000 0.587311
315.000 0.590127
317.000 0.600504
319.000 0.581382
321.000 0.599318
323.000 0.587311
325.000 0.615476
327.000 0.639194
329.000 0.642158
331.000 0.644975
332.200 0.577824
332.300 0.537355
332.400 0.529351
332.500 0.542544
332.600 0.547139
332.700 0.540024
332.800 0.542395
332.900 0.545953
333.000 0.562259
333.100 0.578713
333.200 0.579306
333.300 0.586866
333.400 0.575749
333.500 0.563890
333.600 0.550400
333.700 0.540913
333.800 0.554106
333.900 0.565965
334.000 0.570857
334.100 0.571598
334.200 0.566113
334.300 0.580047
334.400 0.595612
334.500 0.594871
334.600 0.584346
334.700 0.554403
334.800 0.532908
334.900 0.519419
335.000 0.541951
335.100 0.548770
335.200 0.535873
335.300 0.536318
335.400 0.552179
335.500 0.588052
335.600 0.593092
335.700 0.571302
335.800 0.520160
335.900 0.471390
336.000 0.443967
336.100 0.455529
336.200 0.486807
336.300 0.527720
336.400 0.557812
336.500 0.548177
336.600 0.537355
336.700 0.534835
336.800 0.534094
336.900 0.535280
337.000 0.497184
337.100 0.460273
337.200 0.453602
337.300 0.477913
337.400 0.514824
337.500 0.549066
337.600 0.565224
337.700 0.560480
337.800 0.542988
337.900 0.525941
338.000 0.526386
338.100 0.534984
338.200 0.538393
338.300 0.545212
338.400 0.558701
338.500 0.572487
338.600 0.567447
338.700 0.538690
338.800 0.519419
338.900 0.546398
339.000 0.570560
339.100 0.585384
339.200 0.565372
339.300 0.539283
339.400 0.546101
339.500 0.562111
339.600 0.589979
339.700 0.605692
339.800 0.614883
339.900 0.619034
340.000 0.614883
340.100 0.602728
340.200 0.579158
340.300 0.571302
340.400 0.562852
340.500 0.571005
340.600 0.575304
340.700 0.565520
340.800 0.542544
340.900 0.544174
341.000 0.569819
341.100 0.568189
341.200 0.560480
341.300 0.541803
341.400 0.541210
341.500 0.565520
341.600 0.584643
341.700 0.593982
341.800 0.595464
341.900 0.593833
342.000 0.596353
342.100 0.598132
342.200 0.583753
342.300 0.563000
342.400 0.554847
342.500 0.560480
342.600 0.566261
342.700 0.576786
342.800 0.599763
342.900 0.623036
343.000 0.637267
343.100 0.618589
343.200 0.593833
343.300 0.577676
343.400 0.587459
343.500 0.613549
343.600 0.618441
343.700 0.602579
343.800 0.581975
343.900 0.564483
344.000 0.556181
344.100 0.544471
344.200 0.537800
344.300 0.536911
344.400 0.543285
344.500 0.553068
344.600 0.572932
344.700 0.603469
344.800 0.623481
344.900 0.633561
345.000 0.613252
345.100 0.582271
345.200 0.558998
345.300 0.555144
345.400 0.567151
345.500 0.578565
345.600 0.586273
345.700 0.593240
345.800 0.593240
345.900 0.587311
346.000 0.567744
346.100 0.550400
346.200 0.559887
346.300 0.567892
346.400 0.577231
346.500 0.569967
346.600 0.568782
346.700 0.587756
346.800 0.615031
346.900 0.635043
347.000 0.640676
347.100 0.628076
347.200 0.612956
347.300 0.583902
347.400 0.562556
347.500 0.554106
347.600 0.555440
347.700 0.582864
347.800 0.608509
347.900 0.620071
348.000 0.629558
348.100 0.626149
348.200 0.620368
348.300 0.617699
348.400 0.615476
348.500 0.624074
348.600 0.639342
348.700 0.638749
348.800 0.626297
348.900 0.603320
349.000 0.584495
349.100 0.597243
349.200 0.615624
349.300 0.614290
349.400 0.608509
349.500 0.598725
349.600 0.588645
349.700 0.590424
349.800 0.582123
349.900 0.583605
350.000 0.586273
350.100 0.588349
350.200 0.599466
350.300 0.602579
350.400 0.602135
350.500 0.592203
350.600 0.586125
350.700 0.585087
350.800 0.578417
350.900 0.581975
351.000 0.582716
351.100 0.583160
351.200 0.578713
351.300 0.572636
351.400 0.578269
351.500 0.592796
351.600 0.621405
351.700 0.642010
351.800 0.639935
351.900 0.615624
352.000 0.598577
352.100 0.588200
352.200 0.582419
352.300 0.573080
352.400 0.558701
352.500 0.550548
352.600 0.558405
352.700 0.572339
352.800 0.591610
352.900 0.608657
353.000 0.622146
353.100 0.633709
353.200 0.630003
353.300 0.609398
353.400 0.594723
353.500 0.589535
353.600 0.609250
353.700 0.640824
353.800 0.655944
353.900 0.659798
354.000 0.653276
354.100 0.646309
354.200 0.645123
354.300 0.654314
354.400 0.664097
354.500 0.661281
354.600 0.654610
354.700 0.643789
354.800 0.637267
354.900 0.641565
355.000 0.654165
355.100 0.669286
355.200 0.661874
355.300 0.641121
355.400 0.627038
355.500 0.629706
355.600 0.643196
355.700 0.662170
355.800 0.673584
355.900 0.670323
356.000 0.662022
356.100 0.656834
356.200 0.649422
356.300 0.636525
356.400 0.618144
356.500 0.600356
356.600 0.596353
356.700 0.599466
356.800 0.599466
356.900 0.595760
357.000 0.583309
357.100 0.571450
357.200 0.569078
357.300 0.572043
357.400 0.579454
357.500 0.590720
357.600 0.600504
357.700 0.610881
357.800 0.621257
357.900 0.617106
358.000 0.601838
358.100 0.585236
358.200 0.574266
358.300 0.576342
358.400 0.571153
358.500 0.554699
358.600 0.531278
358.700 0.519271
358.800 0.534835
358.900 0.566706
359.000 0.594723
359.100 0.605692
359.200 0.601097
359.300 0.599763
359.400 0.605692
359.500 0.624222
359.600 0.639045
359.700 0.644530
359.800 0.642307
359.900 0.639490
360.000 0.640231
360.100 0.628817
360.200 0.618589
360.300 0.615772
360.400 0.623184
360.500 0.625111
360.600 0.617848
360.700 0.607323
360.800 0.600504
360.900 0.601838
361.000 0.601097
361.100 0.605396
361.200 0.616662
361.300 0.624074
361.400 0.631337
361.500 0.652980
361.600 0.657871
361.700 0.647940
361.800 0.624815
361.900 0.601393
362.000 0.609991
362.100 0.628669
362.200 0.641862
362.300 0.649570
362.400 0.655944
362.500 0.673881
362.600 0.695375
362.700 0.714497
362.800 0.709161
362.900 0.681441
363.000 0.640824
363.100 0.615921
363.200 0.622443
363.300 0.643789
363.400 0.650460
363.500 0.646161
363.600 0.645123
363.700 0.660391
363.800 0.678476
363.900 0.686629
364.000 0.687222
364.100 0.678921
364.200 0.665135
364.300 0.655055
364.400 0.647643
364.500 0.643789
364.600 0.642307
364.700 0.641417
364.800 0.641417
364.900 0.637563
365.000 0.635488
365.100 0.638156
365.200 0.651645
365.300 0.666617
365.400 0.685888
365.500 0.703083
365.600 0.714646
365.700 0.720130
365.800 0.717462
365.900 0.717759
366.000 0.719538
366.100 0.707827
366.200 0.694189
366.300 0.683664
366.400 0.684702
366.500 0.693744
366.600 0.695820
366.700 0.693003
366.800 0.680848
366.900 0.671657
367.000 0.671657
367.100 0.679217
367.200 0.690483
367.300 0.697450
367.400 0.696413
367.500 0.690483
367.600 0.671954
367.700 0.650311
367.800 0.638601
367.900 0.640676
368.000 0.649570
368.100 0.655203
368.200 0.659650
368.300 0.660688
368.400 0.660836
368.500 0.648977
368.600 0.642899
368.700 0.650311
368.800 0.674029
368.900 0.698784
369.000 0.697006
369.100 0.689001
369.200 0.684109
369.300 0.687963
369.400 0.695523
369.500 0.703973
369.600 0.701601
369.700 0.687815
369.800 0.697154
369.900 0.718055
370.000 0.742959
370.100 0.742366
370.200 0.701304
370.300 0.652238
370.400 0.617996
370.500 0.612511
370.600 0.625852
370.700 0.647050
370.800 0.664987
370.900 0.665580
371.000 0.646012
371.100 0.623925
371.200 0.620516
371.300 0.646309
371.400 0.694337
371.500 0.735843
371.600 0.762081
371.700 0.768159
371.800 0.749481
371.900 0.695820
372.000 0.620071
372.100 0.561518
372.200 0.554254
372.300 0.591906
372.400 0.665283
372.500 0.718796
372.600 0.743700
372.700 0.753780
372.800 0.760006
372.900 0.762526
373.000 0.758375
373.100 0.727690
373.200 0.656389
373.300 0.581382
373.400 0.524014
373.500 0.510377
373.600 0.551586
373.700 0.618144
373.800 0.679810
373.900 0.742662
374.000 0.780759
374.100 0.796324
374.200 0.782983
374.300 0.764898
374.400 0.738067
374.500 0.709457
374.600 0.686333
374.700 0.656982
374.800 0.613252
374.900 0.573822
375.000 0.553365
375.100 0.572339
375.200 0.618737
375.300 0.704417
375.400 0.765491
375.500 0.798103
375.600 0.807145
375.700 0.789505
375.800 0.771272
375.900 0.764601
376.000 0.765787
376.100 0.781500
376.200 0.793804
376.300 0.793952
376.400 0.786095
376.500 0.767862
376.600 0.746516
376.700 0.715980
376.800 0.661874
376.900 0.608212
377.000 0.565817
377.100 0.573970
377.200 0.622295
377.300 0.688111
377.400 0.738067
377.500 0.771568
377.600 0.786688
377.700 0.809072
377.800 0.838126
377.900 0.868218
378.000 0.898458
378.100 0.911503
378.200 0.910614
378.300 0.903350
378.400 0.899200
378.500 0.887637
378.600 0.874592
378.700 0.849540
378.800 0.832345
378.900 0.827305
379.000 0.825082
379.100 0.819300
379.200 0.799733
379.300 0.772013
379.400 0.728580
379.500 0.671064
379.600 0.609102
379.700 0.549363
379.800 0.526682
379.900 0.563890
380.000 0.643344
380.100 0.718352
380.200 0.781945
380.300 0.811296
380.400 0.838423
380.500 0.847169
380.600 0.853246
380.700 0.864661
380.800 0.885414
380.900 0.912096
381.000 0.930922
381.100 0.933887
381.200 0.910910
381.300 0.884376
381.400 0.861399
381.500 0.860065
381.600 0.878891
381.700 0.902461
381.800 0.910465
381.900 0.888823
382.000 0.864661
382.100 0.855915
382.200 0.861548
382.300 0.858138
382.400 0.833679
382.500 0.807886
382.600 0.787281
382.700 0.773644
382.800 0.753187
382.900 0.737919
383.000 0.723243
383.100 0.689594
383.200 0.650015
383.300 0.579603
383.400 0.520012
383.500 0.493181
383.600 0.504744
383.700 0.541506
383.800 0.597095
383.900 0.642158
384.000 0.685147
384.100 0.734065
384.200 0.778239
384.300 0.826712
384.400 0.857249
384.500 0.877112
384.600 0.895345
384.700 0.915505
384.800 0.925882
384.900 0.921287
385.000 0.917877
385.100 0.930477
385.200 0.955974
385.300 0.977913
385.400 0.979692
385.500 0.966054
385.600 0.949303
385.700 0.936555
385.800 0.923362
385.900 0.919953
386.000 0.931663
386.100 0.953306
386.200 0.972132
386.300 0.981174
386.400 0.976134
386.500 0.967092
386.600 0.966647
386.700 0.971390
386.800 0.976727
386.900 0.976430
387.000 0.962052
387.100 0.943374
387.200 0.916395
387.300 0.902609
387.400 0.899644
387.500 0.906760
387.600 0.903498
387.700 0.878743
387.800 0.854432
387.900 0.842870
388.000 0.850875
388.100 0.852653
388.200 0.836199
388.300 0.813074
388.400 0.775274
388.500 0.731248
388.600 0.672102
388.700 0.598280
388.800 0.545953
388.900 0.535725
389.000 0.573229
389.100 0.644382
389.200 0.708568
389.300 0.744293
389.400 0.769938
389.500 0.792025
389.600 0.821376
389.700 0.843166
389.800 0.858879
389.900 0.867625
390.000 0.878743
390.100 0.893567
390.200 0.900237
390.300 0.906315
390.400 0.900830
390.500 0.899348
390.600 0.910169
390.700 0.934628
390.800 0.967092
390.900 0.993922
391.000 1.007857
391.100 1.011859
391.200 1.010228
391.300 1.001927
391.400 0.989772
391.500 0.984880
391.600 0.986955
391.700 0.986066
391.800 0.978802
391.900 0.968870
392.000 0.963534
392.100 0.962645
392.200 0.965016
392.300 0.972873
392.400 0.975245
392.500 0.970649
392.600 0.945894
392.700 0.912096
392.800 0.863919
392.900 0.808924
393.000 0.731100
393.100 0.620961
393.200 0.495405
393.300 0.403795
393.400 0.392529
393.500 0.481767
393.600 0.610584
393.700 0.727839
393.800 0.826416
393.900 0.884376
394.000 0.921880
394.100 0.943226
394.200 0.949303
394.300 0.946487
394.400 0.950489
394.500 0.957456
394.600 0.968722
394.700 0.973466
394.800 0.967685
394.900 0.958049
395.000 0.951527
395.100 0.948117
395.200 0.947376
395.300 0.955529
395.400 0.954195
395.500 0.945894
395.600 0.931960
395.700 0.916840
395.800 0.915505
395.900 0.908983
396.000 0.884821
396.100 0.852950
396.200 0.810406
396.300 0.773347
396.400 0.728432
396.500 0.653869
396.600 0.552476
396.700 0.424251
396.800 0.332938
396.900 0.302994
397.000 0.354136
397.100 0.453454
397.200 0.566410
397.300 0.646457
397.400 0.720130
397.500 0.770382
397.600 0.817077
397.700 0.851468
397.800 0.881263
397.900 0.909280
398.000 0.922176
398.100 0.930033
398.200 0.937000
398.300 0.949007
398.400 0.965461
398.500 0.982212
398.600 0.997776
398.700 1.010821
398.800 1.024459
398.900 1.028313
399.000 1.030833
399.100 1.036763
399.200 1.043730
399.300 1.054699
399.400 1.057960
399.500 1.052031
399.600 1.033205
399.700 1.020901
399.800 1.022384
399.900 1.040320
400.000 1.056033
400.100 1.066706
400.200 1.068337
400.300 1.059146
400.400 1.043878
400.500 1.029944
400.600 1.032019
400.700 1.048770
400.800 1.070857
400.900 1.082864
401.000 1.087311
401.100 1.086273
401.200 1.081975
401.300 1.079751
401.400 1.080937
401.500 1.089238
401.600 1.095464
401.700 1.099763
401.800 1.105396
401.900 1.109991
402.000 1.115624
402.100 1.112956
402.200 1.107175
402.300 1.099318
402.400 1.091017
402.500 1.091906
402.600 1.101542
402.700 1.117996
402.800 1.118292
402.900 1.107619
403.000 1.085829
403.100 1.069967
403.200 1.062407
403.300 1.065520
403.400 1.076193
403.500 1.093833
403.600 1.113252
403.700 1.134154
403.800 1.140676
403.900 1.135784
404.000 1.128372
404.100 1.122888
404.200 1.122295
404.300 1.111918
404.400 1.081530
404.500 1.055885
404.600 1.050548
404.700 1.072339
404.800 1.100800
404.900 1.119923
405.000 1.121405
405.100 1.122888
405.200 1.116958
405.300 1.107323
405.400 1.097836
405.500 1.092647
405.600 1.094723
405.700 1.095019
405.800 1.098577
405.900 1.113845
406.000 1.122888
406.100 1.113845
406.200 1.084643
406.300 1.057812
406.400 1.046250
406.500 1.044916
406.600 1.051438
406.700 1.057812
406.800 1.060925
406.900 1.059294
407.000 1.050548
407.100 1.032760
407.200 1.023570
407.300 1.030833
407.400 1.039727
407.500 1.037059
407.600 1.012304
407.700 0.989475
407.800 0.979840
407.900 0.995256
408.000 1.020457
408.100 1.038541
408.200 1.039134
408.300 1.029351
408.400 1.017492
408.500 1.007115
408.600 1.009487
408.700 1.013934
408.800 1.018678
408.900 1.018233
409.000 1.007708
409.100 1.000296
409.200 0.994812
409.300 0.978358
409.400 0.960421
409.500 0.927661
409.600 0.899941
409.700 0.868070
409.800 0.825378
409.900 0.770975
410.000 0.685295
410.100 0.627335
410.200 0.615921
410.300 0.671064
410.400 0.745775
410.500 0.818856
410.600 0.858879
410.700 0.892084
410.800 0.909724
410.900 0.925289
411.000 0.942336
411.100 0.957012
411.200 0.976134
411.300 0.990513
411.400 1.006522
411.500 1.021642
411.600 1.028017
411.700 1.025348
411.800 1.018381
411.900 1.012304
412.000 1.014527
412.100 1.023570
412.200 1.033946
412.300 1.041951
412.400 1.049511
412.500 1.053365
412.600 1.053661
412.700 1.051883
412.800 1.052031
412.900 1.055737
413.000 1.054996
413.100 1.044323
413.200 1.031871
413.300 1.033353
413.400 1.047436
413.500 1.063593
413.600 1.077379
413.700 1.088349
413.800 1.100356
413.900 1.111177
414.000 1.110732
414.100 1.096650
414.200 1.074859
414.300 1.055144
414.400 1.052920
414.500 1.063000
414.600 1.079751
414.700 1.085532
414.800 1.088497
414.900 1.091017
415.000 1.093685
415.100 1.096946
415.200 1.092647
415.300 1.085087
415.400 1.076934
415.500 1.071302
