# Wavelength (nm)   F_lamA (normalized erg/cm2/s/A)9.100 0.000001
9.400 0.000003
9.600 0.000004
9.800 0.000007
10.000 0.000011
10.200 0.000017
10.400 0.000025
10.600 0.000037
10.800 0.000053
11.000 0.000076
11.400 0.000148
11.800 0.000275
12.100 0.000425
12.500 0.000731
12.700 0.000945
12.800 0.001071
13.100 0.001537
13.200 0.001728
13.400 0.002168
13.700 0.003004
14.000 0.004095
14.300 0.005500
14.700 0.007975
15.100 0.011300
15.500 0.015677
15.900 0.021339
16.200 0.026573
16.600 0.035074
17.000 0.045592
17.300 0.054963
17.700 0.069694
18.000 0.082596
18.200 0.092143
18.600 0.113684
19.100 0.145668
19.400 0.167613
19.800 0.200656
20.200 0.238113
20.500 0.269139
21.000 0.327027
21.600 0.406987
22.000 0.466768
22.300 0.515323
22.700 0.584941
23.000 19.271030
23.400 21.225880
24.000 27.393114
24.600 37.470047
25.200 45.793921
25.700 35.426914
26.000 50.599067
26.400 63.879430
26.900 65.001892
27.400 66.010846
27.900 63.475848
28.400 66.767562
29.000 66.439652
29.600 61.079581
30.100 42.350864
30.800 52.629588
31.800 65.493757
32.800 65.670324
33.800 64.371295
34.800 63.185774
35.700 64.093833
36.600 64.837937
37.500 63.753311
38.500 60.335477
39.500 61.874133
40.500 61.949805
41.400 61.117417
42.200 59.566150
43.000 58.544583
44.100 58.607643
45.100 57.623912
46.000 56.034809
47.000 55.025854
48.000 54.521377
49.000 52.768319
50.000 52.616976
50.600 56.135704
51.200 65.720772
52.000 64.446967
53.000 63.248833
54.000 59.982343
55.000 59.124732
56.000 60.625552
57.000 59.793164
58.000 57.964434
59.000 57.598688
60.000 55.870854
61.000 54.231303
62.000 54.710556
63.000 53.499811
64.000 52.907050
65.000 51.658469
65.800 50.321604
66.500 50.384664
67.500 49.791903
68.500 47.963173
69.500 47.963173
70.500 46.083995
71.600 46.260562
72.600 45.541682
73.500 44.860638
74.500 43.839072
75.500 42.981460
76.500 41.846387
77.500 41.417581
78.500 40.610417
79.500 39.954597
80.500 39.374448
81.500 38.756464
82.500 38.188927
83.500 36.574600
84.500 36.801614
85.500 36.082734
86.500 35.653929
87.500 35.061168
88.500 34.443183
89.500 33.825199
90.500 33.018035
91.500 34.960272
92.500 53.310632
93.500 67.852188
94.500 86.152100
95.500 90.591500
96.500 100.290074
97.500 72.997856
98.500 96.720898
99.500 90.541052
100.500 93.441796
101.500 90.175306
102.500 67.082860
103.500 85.042250
104.500 86.921428
105.500 84.979190
106.500 81.296506
107.500 80.224492
108.500 75.003153
109.500 77.323748
110.500 74.927481
111.500 73.250095
112.500 70.298903
113.500 70.235843
114.500 68.293606
115.500 66.704502
116.500 65.291966
117.500 59.641821
118.500 61.975028
119.500 60.272418
120.500 57.686972
121.500 44.431833
122.500 55.416824
123.500 55.366377
124.500 54.155631
125.500 53.512423
126.500 52.377349
127.500 51.406230
128.500 50.346828
129.500 48.757725
130.500 47.862278
131.500 47.219069
132.500 46.033548
133.500 44.898474
134.500 44.280489
135.500 43.359818
136.500 42.350864
137.500 41.379745
138.500 40.648253
139.500 38.289822
140.500 37.041241
141.500 38.239374
142.500 37.318703
143.500 36.738555
144.200 36.196242
144.700 35.830496
145.500 35.212511
146.500 34.531467
147.500 33.863034
148.500 33.270274
149.500 32.589229
150.500 31.933409
151.200 31.479379
151.700 31.176693
152.500 30.659604
153.500 29.738933
154.500 28.540800
155.500 28.124606
156.500 28.111994
157.500 27.758860
158.500 27.317442
159.500 26.812965
160.500 26.056249
161.500 25.576996
162.500 25.122966
163.500 24.467146
164.500 23.395132
165.500 23.950057
166.500 23.559087
167.200 23.117669
167.700 23.180729
168.500 22.814983
169.500 22.386177
170.500 21.957372
171.500 21.389835
172.500 21.099760
173.500 20.885358
174.500 20.481776
175.500 20.116030
176.500 19.762896
177.500 19.460209
178.500 19.157523
179.500 18.829613
180.500 18.539538
181.500 18.199016
182.500 17.896330
183.500 17.606256
184.500 17.227898
185.500 16.899987
186.500 16.660361
187.500 16.433346
188.500 16.080212
189.500 15.764914
190.500 15.613570
191.500 15.298272
192.500 15.008198
193.500 14.856855
194.500 14.667676
195.500 14.327153
196.700 14.150586
197.600 13.986631
198.400 13.759617
199.500 13.469542
200.500 13.330811
201.500 13.154244
202.500 12.965065
203.500 12.738050
204.500 12.536259
205.500 10.707529
206.500 11.113633
207.400 12.029260
207.800 11.986379
208.500 11.886745
209.500 11.717745
210.500 11.563879
211.500 11.449111
212.500 11.280111
213.500 11.102283
214.500 10.925716
215.500 10.837432
216.500 10.594022
217.500 10.518350
218.500 10.287552
219.500 10.225754
220.500 10.073149
221.500 9.837306
222.500 9.779291
223.500 9.643082
224.500 9.506874
225.500 9.272292
226.500 9.234456
227.500 9.108336
228.500 8.979695
229.500 8.787993
230.500 8.629083
231.500 8.606382
232.500 8.361710
233.500 8.360449
234.500 8.239374
235.500 8.139740
236.500 8.017404
237.500 7.913987
238.500 7.689494
239.500 7.693278
240.500 7.591121
241.500 7.491487
242.500 7.403203
243.500 7.302308
244.500 7.208980
245.500 7.113129
246.500 7.019801
247.500 6.925211
248.500 6.835667
249.500 6.627570
250.500 6.655316
251.300 6.356413
251.800 6.535503
252.500 6.481271
253.500 6.399294
254.500 6.314794
255.500 6.244167
256.500 6.163451
257.500 6.090301
258.500 6.010846
259.500 5.931391
260.500 5.856981
261.500 5.780048
262.500 5.716988
263.500 5.651406
264.500 5.606003
265.500 5.537899
266.500 5.459705
267.500 5.396645
268.500 5.344936
269.500 5.259175
270.500 5.212511
271.500 5.143145
272.500 5.066213
273.500 4.948922
274.500 4.942616
275.500 4.893429
276.500 4.827847
277.500 4.797579
278.500 4.731996
279.500 4.631101
280.500 4.589482
281.500 4.580653
282.500 4.520116
283.500 4.474713
284.500 4.429310
285.500 4.372556
286.500 4.334721
287.500 4.285534
288.500 4.240131
289.500 4.190945
291.000 4.132930
293.000 4.039601
295.000 3.939967
297.000 3.869340
299.000 3.788624
301.000 3.696557
303.000 3.604490
305.000 3.516206
307.000 3.430445
309.000 3.349729
311.000 3.266490
313.000 3.188296
315.000 3.117669
317.000 3.047043
319.000 2.954975
321.000 2.884349
323.000 2.833901
325.000 2.777147
327.000 2.720393
329.000 2.662379
331.000 2.610670
332.200 2.531215
332.300 2.547610
332.400 2.542565
332.500 2.545088
332.600 2.526170
332.700 2.497162
332.800 2.483289
332.900 2.485812
333.000 2.494640
333.100 2.494640
333.200 2.483289
333.300 2.464371
333.400 2.450498
333.500 2.440409
333.600 2.422752
333.700 2.416446
333.800 2.420230
333.900 2.422752
334.000 2.407618
334.100 2.406356
334.200 2.411401
334.300 2.460588
334.400 2.499685
334.500 2.519864
334.600 2.531215
334.700 2.531215
334.800 2.497162
334.900 2.441670
335.000 2.354647
335.100 2.349603
335.200 2.373565
335.300 2.383655
335.400 2.381133
335.500 2.365998
335.600 2.358431
335.700 2.353386
335.800 2.342036
335.900 2.329424
336.000 2.326901
336.100 2.335730
336.200 2.355909
336.300 2.367259
336.400 2.371043
336.500 2.349603
336.600 2.323118
336.700 2.305461
336.800 2.292849
336.900 2.290327
337.000 2.299155
337.100 2.295371
337.200 2.280237
337.300 2.294110
337.400 2.315551
337.500 2.344558
337.600 2.353386
337.700 2.334468
337.800 2.320595
337.900 2.320595
338.000 2.339513
338.100 2.363476
338.200 2.371043
338.300 2.369782
338.400 2.357170
338.500 2.368521
338.600 2.383655
338.700 2.396267
338.800 2.398789
338.900 2.374827
339.000 2.363476
339.100 2.359692
339.200 2.373565
339.300 2.387439
339.400 2.420230
339.500 2.427797
339.600 2.412662
339.700 2.392483
339.800 2.373565
339.900 2.324379
340.000 2.291588
340.100 2.290327
340.200 2.271409
340.300 2.262580
340.400 2.272670
340.500 2.282759
340.600 2.275192
340.700 2.268886
340.800 2.272670
340.900 2.278976
341.000 2.290327
341.100 2.266364
341.200 2.263842
341.300 2.278976
341.400 2.299155
341.500 2.314289
341.600 2.315551
341.700 2.319334
341.800 2.323118
341.900 2.331946
342.000 2.333207
342.100 2.338252
342.200 2.335730
342.300 2.335730
342.400 2.326901
342.500 2.319334
342.600 2.321856
342.700 2.326901
342.800 2.344558
342.900 2.352125
343.000 2.336991
343.100 2.323118
343.200 2.311767
343.300 2.310506
343.400 2.318073
343.500 2.334468
343.600 2.343297
343.700 2.338252
343.800 2.319334
343.900 2.292849
344.000 2.256274
344.100 2.236095
344.200 2.237357
344.300 2.257536
344.400 2.276454
344.500 2.263842
344.600 2.260058
344.700 2.260058
344.800 2.280237
344.900 2.300416
345.000 2.255013
345.100 2.210871
345.200 2.194476
345.300 2.195737
345.400 2.208349
345.500 2.214655
345.600 2.218439
345.700 2.214655
345.800 2.203304
345.900 2.193215
346.000 2.184386
346.100 2.184386
346.200 2.204566
346.300 2.278976
346.400 2.249968
346.500 2.241140
346.600 2.246185
346.700 2.241140
346.800 2.238618
346.900 2.248707
347.000 2.255013
347.100 2.218439
347.200 2.213394
347.300 2.236095
347.400 2.226006
347.500 2.208349
347.600 2.183125
347.700 2.140245
347.800 2.106192
347.900 2.106192
348.000 2.137722
348.100 2.173036
348.200 2.165469
348.300 2.137722
348.400 2.141506
348.500 2.184386
348.600 2.205827
348.700 2.218439
348.800 2.242401
348.900 2.242401
349.000 2.219700
349.100 2.209610
349.200 2.228528
349.300 2.229789
349.400 2.227267
349.500 2.210871
349.600 2.174297
349.700 2.174297
349.800 2.191954
349.900 2.215916
350.000 2.203304
350.100 2.156640
350.200 2.155379
350.300 2.166730
350.400 2.156640
350.500 2.131416
350.600 2.120066
350.700 2.126372
350.800 2.137722
350.900 2.138983
351.000 2.132678
351.100 2.128894
351.200 2.121327
351.300 2.112498
351.400 2.121327
351.500 2.122588
351.600 2.142767
351.700 2.140245
351.800 2.141506
351.900 2.142767
352.000 2.136461
352.100 2.128894
352.200 2.122588
352.300 2.121327
352.400 2.135200
352.500 2.104931
352.600 2.102409
352.700 2.106192
352.800 2.120066
352.900 2.141506
353.000 2.150334
353.100 2.156640
353.200 2.167991
353.300 2.156640
353.400 2.131416
353.500 2.126372
353.600 2.132678
353.700 2.116282
353.800 2.116282
353.900 2.122588
354.000 2.142767
354.100 2.155379
354.200 2.147812
354.300 2.136461
354.400 2.140245
354.500 2.145289
354.600 2.137722
354.700 2.145289
354.800 2.159163
354.900 2.159163
355.000 2.141506
355.100 2.130155
355.200 2.135200
355.300 2.145289
355.400 2.144028
355.500 2.132678
355.600 2.118804
355.700 2.128894
355.800 2.137722
355.900 2.136461
356.000 2.131416
356.100 2.138983
356.200 2.146551
356.300 2.138983
356.400 2.131416
356.500 2.131416
356.600 2.126372
356.700 2.098625
356.800 2.103670
356.900 2.099886
357.000 2.072140
357.100 2.022954
357.200 2.012864
357.300 2.016648
357.400 2.010342
357.500 2.015387
357.600 2.026737
357.700 2.031782
357.800 2.033043
357.900 2.027998
358.000 2.034304
358.100 2.035566
358.200 2.022954
358.300 2.024215
358.400 2.031782
358.500 2.017909
358.600 1.993946
358.700 1.981334
358.800 1.975028
358.900 1.976290
359.000 1.996469
359.100 2.012864
359.200 2.017909
359.300 2.025476
359.400 2.026737
359.500 2.022954
359.600 2.016648
359.700 2.020431
359.800 2.027998
359.900 2.041872
360.000 2.062051
360.100 2.055745
360.200 2.048178
360.300 2.025476
360.400 2.012864
360.500 2.017909
360.600 2.020431
360.700 2.021693
360.800 2.030521
360.900 2.035566
361.000 2.025476
361.100 1.996469
361.200 1.997730
361.300 1.995207
361.400 1.981334
361.500 1.987640
361.600 2.012864
361.700 2.030521
361.800 2.031782
361.900 2.020431
362.000 1.998991
362.100 2.001513
362.200 2.030521
362.300 2.035566
362.400 2.024215
362.500 2.022954
362.600 2.036827
362.700 2.051961
362.800 2.044394
362.900 2.029260
363.000 2.026737
363.100 2.019170
363.200 1.998991
363.300 1.991424
363.400 2.016648
363.500 2.024215
363.600 1.987640
363.700 1.968722
363.800 1.976290
363.900 1.981334
364.000 1.986379
364.100 1.996469
364.200 1.992685
364.300 1.968722
364.400 1.942237
364.500 1.937193
364.600 1.944760
364.700 1.952327
364.800 1.962416
364.900 1.966200
365.000 1.963678
365.100 1.954849
365.200 1.954849
365.300 1.954849
365.400 1.954849
365.500 1.966200
365.600 1.972506
365.700 1.967461
365.800 1.967461
365.900 1.963678
366.000 1.949805
366.100 1.944760
366.200 1.942237
366.300 1.949805
366.400 1.954849
366.500 1.951066
366.600 1.947282
366.700 1.940976
366.800 1.937193
366.900 1.942237
367.000 1.942237
367.100 1.937193
367.200 1.937193
367.300 1.939715
367.400 1.935931
367.500 1.932148
367.600 1.937193
367.700 1.924581
367.800 1.914491
367.900 1.911969
368.000 1.917013
368.100 1.928364
368.200 1.937193
368.300 1.929625
368.400 1.913230
368.500 1.908185
368.600 1.903140
368.700 1.899357
368.800 1.915752
368.900 1.942237
369.000 1.952327
369.100 1.940976
369.200 1.939715
369.300 1.948543
369.400 1.944760
369.500 1.938454
369.600 1.925842
369.700 1.908185
369.800 1.909446
369.900 1.940976
370.000 1.990163
370.100 1.988902
370.200 1.947282
370.300 1.884222
370.400 1.833775
370.500 1.813596
370.600 1.840081
370.700 1.881700
370.800 1.905663
370.900 1.899357
371.000 1.866566
371.100 1.831252
371.200 1.806029
371.300 1.817379
371.400 1.874133
371.500 1.947282
371.600 1.977551
371.700 1.987640
371.800 1.985118
371.900 1.928364
372.000 1.831252
372.100 1.768193
372.200 1.737924
372.300 1.751797
372.400 1.816118
372.500 1.894312
372.600 1.927103
372.700 1.944760
372.800 1.954849
372.900 1.964939
373.000 1.967461
373.100 1.932148
373.200 1.855215
373.300 1.775760
373.400 1.701349
373.500 1.674864
373.600 1.705133
373.700 1.783327
373.800 1.855215
373.900 1.934670
374.000 1.986379
374.100 2.005297
374.200 1.991424
374.300 1.966200
374.400 1.949805
374.500 1.929625
374.600 1.880439
374.700 1.806029
374.800 1.734140
374.900 1.648379
375.000 1.618111
375.100 1.657208
375.200 1.742969
375.300 1.819902
375.400 1.884222
375.500 1.929625
375.600 1.954849
375.700 1.939715
375.800 1.890528
375.900 1.853954
376.000 1.837558
376.100 1.837558
376.200 1.889267
376.300 1.925842
376.400 1.925842
376.500 1.905663
376.600 1.869088
376.700 1.819902
376.800 1.749275
376.900 1.676126
377.000 1.609282
377.100 1.592887
377.200 1.649641
377.300 1.742969
377.400 1.812334
377.500 1.853954
377.600 1.877917
377.700 1.904402
377.800 1.937193
377.900 1.953588
378.000 1.968722
378.100 1.981334
378.200 1.988902
378.300 1.976290
378.400 1.966200
378.500 1.972506
378.600 1.961155
378.700 1.929625
378.800 1.908185
378.900 1.904402
379.000 1.903140
379.100 1.898096
379.200 1.893051
379.300 1.872872
379.400 1.816118
379.500 1.734140
379.600 1.640812
379.700 1.552529
379.800 1.510909
379.900 1.538656
380.000 1.652163
380.100 1.770715
380.200 1.851431
380.300 1.896834
380.400 1.923319
380.500 1.939715
380.600 1.920797
380.700 1.917013
380.800 1.928364
380.900 1.949805
381.000 1.975028
381.100 1.983857
381.200 1.953588
381.300 1.913230
381.400 1.881700
381.500 1.874133
381.600 1.881700
381.700 1.895573
381.800 1.896834
381.900 1.881700
382.000 1.857737
382.100 1.840081
382.200 1.870349
382.300 1.903140
382.400 1.888006
382.500 1.857737
382.600 1.832514
382.700 1.842603
382.800 1.848909
382.900 1.828730
383.000 1.798461
383.100 1.758103
383.200 1.689999
383.300 1.591626
383.400 1.485685
383.500 1.427671
383.600 1.431454
383.700 1.510909
383.800 1.608021
383.900 1.692521
384.000 1.745491
384.100 1.788372
384.200 1.823685
384.300 1.864043
384.400 1.905663
384.500 1.933409
384.600 1.927103
384.700 1.924581
384.800 1.918275
384.900 1.917013
385.000 1.904402
385.100 1.910708
385.200 1.925842
385.300 1.933409
385.400 1.929625
385.500 1.917013
385.600 1.895573
385.700 1.882961
385.800 1.882961
385.900 1.895573
386.000 1.899357
386.100 1.914491
386.200 1.915752
386.300 1.899357
386.400 1.895573
386.500 1.886745
386.600 1.880439
386.700 1.894312
386.800 1.915752
386.900 1.920797
387.000 1.905663
387.100 1.880439
387.200 1.847648
387.300 1.832514
387.400 1.843864
387.500 1.869088
387.600 1.880439
387.700 1.864043
387.800 1.843864
387.900 1.838820
388.000 1.857737
388.100 1.856476
388.200 1.832514
388.300 1.803506
388.400 1.779543
388.500 1.726573
388.600 1.633245
388.700 1.509648
388.800 1.410014
388.900 1.367133
389.000 1.425148
389.100 1.556312
389.200 1.681170
389.300 1.761887
389.400 1.795939
389.500 1.808551
389.600 1.816118
389.700 1.833775
389.800 1.845125
389.900 1.833775
390.000 1.829991
390.100 1.850170
390.200 1.874133
390.300 1.885484
390.400 1.885484
390.500 1.879178
390.600 1.858999
390.700 1.862782
390.800 1.899357
390.900 1.929625
391.000 1.932148
391.100 1.930887
391.200 1.922058
391.300 1.889267
391.400 1.869088
391.500 1.875394
391.600 1.884222
391.700 1.885484
391.800 1.879178
391.900 1.857737
392.000 1.847648
392.100 1.845125
392.200 1.832514
392.300 1.816118
392.400 1.814857
392.500 1.827469
392.600 1.817379
392.700 1.800984
392.800 1.769454
392.900 1.734140
393.000 1.691260
393.100 1.616850
393.200 1.461723
393.300 1.254130
393.400 1.249590
393.500 1.408753
393.600 1.532350
393.700 1.616850
393.800 1.683693
393.900 1.736663
394.000 1.784588
394.100 1.813596
394.200 1.821163
394.300 1.816118
394.400 1.814857
394.500 1.800984
394.600 1.804767
394.700 1.821163
394.800 1.822424
394.900 1.811073
395.000 1.802245
395.100 1.798461
395.200 1.797200
395.300 1.804767
395.400 1.813596
395.500 1.816118
395.600 1.800984
395.700 1.779543
395.800 1.771976
395.900 1.783327
396.000 1.788372
396.100 1.773237
396.200 1.734140
396.300 1.687476
396.400 1.635767
396.500 1.572708
396.600 1.470551
396.700 1.267499
396.800 1.059654
396.900 0.984235
397.000 1.035440
397.100 1.156892
397.200 1.316686
397.300 1.451633
397.400 1.552529
397.500 1.630723
397.600 1.691260
397.700 1.720267
397.800 1.734140
397.900 1.759364
398.000 1.770715
398.100 1.771976
398.200 1.759364
398.300 1.750536
398.400 1.764409
398.500 1.788372
398.600 1.769454
398.700 1.726573
398.800 1.774499
398.900 1.792155
399.000 1.803506
399.100 1.813596
399.200 1.823685
399.300 1.831252
399.400 1.823685
399.500 1.812334
399.600 1.785849
399.700 1.773237
399.800 1.773237
399.900 1.780805
400.000 1.782066
400.100 1.784588
400.200 1.787111
400.300 1.787111
400.400 1.788372
400.500 1.778282
400.600 1.773237
400.700 1.780805
400.800 1.798461
400.900 1.803506
401.000 1.797200
401.100 1.798461
401.200 1.793417
401.300 1.792155
401.400 1.799723
401.500 1.807290
401.600 1.816118
401.700 1.827469
401.800 1.836297
401.900 1.845125
402.000 1.845125
402.100 1.828730
402.200 1.811073
402.300 1.779543
402.400 1.736663
402.500 1.700088
402.600 1.707655
402.700 1.741708
402.800 1.774499
402.900 1.787111
403.000 1.793417
403.100 1.785849
403.200 1.784588
403.300 1.788372
403.400 1.793417
403.500 1.803506
403.600 1.813596
403.700 1.827469
403.800 1.838820
403.900 1.835036
404.000 1.833775
404.100 1.833775
404.200 1.826208
404.300 1.818640
404.400 1.806029
404.500 1.785849
404.600 1.769454
404.700 1.788372
404.800 1.812334
404.900 1.822424
405.000 1.821163
405.100 1.822424
405.200 1.824946
405.300 1.813596
405.400 1.808551
405.500 1.814857
405.600 1.821163
405.700 1.826208
405.800 1.835036
405.900 1.843864
406.000 1.835036
406.100 1.803506
406.200 1.795939
406.300 1.789633
406.400 1.746752
406.500 1.678648
406.600 1.713961
406.700 1.749275
406.800 1.753058
406.900 1.748014
407.000 1.739185
407.100 1.727835
407.200 1.724051
407.300 1.720267
407.400 1.735402
407.500 1.736663
407.600 1.711439
407.700 1.686215
407.800 1.679909
407.900 1.708917
408.000 1.745491
408.100 1.764409
408.200 1.765670
408.300 1.760626
408.400 1.742969
408.500 1.732879
408.600 1.727835
408.700 1.741708
408.800 1.760626
408.900 1.770715
409.000 1.765670
409.100 1.758103
409.200 1.755581
409.300 1.735402
409.400 1.715223
409.500 1.687476
409.600 1.654685
409.700 1.615588
409.800 1.551267
409.900 1.473074
410.000 1.372178
410.100 1.271283
410.200 1.224492
410.300 1.285156
410.400 1.422626
410.500 1.558835
410.600 1.630723
410.700 1.658469
410.800 1.674864
410.900 1.676126
411.000 1.677387
411.100 1.686215
411.200 1.705133
411.300 1.722790
411.400 1.745491
411.500 1.763148
411.600 1.769454
411.700 1.755581
411.800 1.730357
411.900 1.708917
412.000 1.707655
412.100 1.710178
412.200 1.703872
412.300 1.702611
412.400 1.717745
412.500 1.736663
412.600 1.742969
412.700 1.725312
412.800 1.697566
412.900 1.693782
413.000 1.700088
413.100 1.705133
413.200 1.698827
413.300 1.698827
413.400 1.711439
413.500 1.729096
413.600 1.739185
413.700 1.748014
413.800 1.759364
413.900 1.766932
414.000 1.768193
414.100 1.764409
414.200 1.740446
