# Wavelength (nm)   F_lamA (normalized erg/cm2/s/A)9.100 0.000026
9.400 0.000045
9.600 0.000065
9.800 0.000091
10.000 0.000126
10.200 0.000171
10.400 0.000230
10.600 0.000306
10.800 0.000402
11.000 0.000523
11.400 0.000858
11.800 0.001358
12.100 0.001875
12.500 0.002810
12.700 0.003406
12.800 0.003741
13.100 0.004911
13.200 0.005361
13.400 0.006363
13.700 0.008149
14.000 0.010319
14.300 0.012932
14.700 0.017212
15.100 0.022548
15.500 0.029114
15.900 0.037071
16.200 0.044083
16.600 0.054972
17.000 0.067779
17.300 0.078790
17.700 0.095461
18.000 0.109592
18.200 0.119819
18.600 0.142394
19.100 0.174547
19.400 0.196298
19.800 0.227911
20.200 0.263037
20.500 0.291678
21.000 0.343826
21.600 0.413942
22.000 0.465415
22.300 0.506620
22.700 0.564847
23.000 13.955688
23.400 15.630911
24.000 20.116185
24.600 27.208862
25.200 34.261011
25.700 27.249392
26.000 38.057282
26.400 48.041070
26.900 49.527155
27.400 50.540394
27.900 47.365577
28.400 52.067009
29.000 52.039989
29.600 47.054850
30.100 30.734937
30.800 37.962713
31.800 48.797622
32.800 48.946231
33.800 47.608754
34.800 46.406377
35.700 47.865442
36.600 49.932451
37.500 48.986760
38.500 45.379627
39.500 47.716833
40.500 48.473386
41.400 47.905971
42.200 46.446906
43.000 45.366117
44.100 46.149689
45.100 45.568765
46.000 44.001621
47.000 43.245069
48.000 43.191029
49.000 41.475277
50.000 41.907593
50.600 45.447176
51.200 56.957579
52.000 55.430965
53.000 53.958390
54.000 50.283707
55.000 49.540665
56.000 52.512834
57.000 52.026479
58.000 50.216158
59.000 50.148608
60.000 48.257228
61.000 46.865712
62.000 48.324777
63.000 47.122399
64.000 46.906242
65.000 45.757903
65.800 44.420427
66.500 44.839233
67.500 44.582545
68.500 42.569576
69.500 43.069441
70.500 40.921373
71.600 41.880573
72.600 41.340178
73.500 40.867333
74.500 39.908133
75.500 39.165091
76.500 37.989733
77.500 37.868144
78.500 37.206160
79.500 36.746825
80.500 36.301000
81.500 35.868684
82.500 35.449878
83.500 33.504458
84.500 34.288030
85.500 33.666577
86.500 33.423399
87.500 32.964064
88.500 32.437179
89.500 31.937314
90.500 31.221292
91.500 31.923804
92.500 56.417185
93.500 75.722778
94.500 99.310997
95.500 105.984869
96.500 118.413942
97.500 80.099973
98.500 113.469333
99.500 105.930830
100.500 109.970278
101.500 106.511754
102.500 76.898136
103.500 99.986490
104.500 105.012159
105.500 102.553364
106.500 97.095380
107.500 96.744123
108.500 90.043232
109.500 93.798973
110.500 90.529587
111.500 88.678735
112.500 84.369089
113.500 85.368819
114.500 82.653337
115.500 81.018644
116.500 79.437990
117.500 70.575520
118.500 75.128344
119.500 72.696568
120.500 68.805728
121.500 51.269927
122.500 66.657660
123.500 67.616860
124.500 66.360443
125.500 65.563361
126.500 64.293434
127.500 63.428803
128.500 62.226425
129.500 59.781140
130.500 58.835450
131.500 58.538233
132.500 56.930559
133.500 55.417455
134.500 54.958119
135.500 53.863821
136.500 52.458795
137.500 51.310457
138.500 50.499865
139.500 46.730613
140.500 45.041881
141.500 47.595245
142.500 46.217239
143.500 45.784923
144.200 45.190489
144.700 44.717644
145.500 43.907052
146.500 43.055931
147.500 42.272359
148.500 41.623885
149.500 40.732235
150.500 39.894623
151.200 39.232640
151.700 38.908403
152.500 38.273440
153.500 36.719805
154.500 34.963523
155.500 34.477168
156.500 34.841935
157.500 34.639287
158.500 34.193461
159.500 33.626047
160.500 32.477709
161.500 31.856255
162.500 31.369900
163.500 30.761956
164.500 29.532559
165.500 30.154012
166.500 29.721697
167.200 28.992164
167.700 29.397460
168.500 28.924615
169.500 28.370711
170.500 27.762767
171.500 27.006215
172.500 26.627938
173.500 26.533369
174.500 26.006485
175.500 25.587679
176.500 25.087814
177.500 24.763577
178.500 24.425831
179.500 24.034045
180.500 23.709808
181.500 23.209943
182.500 22.872197
183.500 22.534450
184.500 21.926506
185.500 21.507701
186.500 21.264523
187.500 21.048365
188.500 20.467441
189.500 20.035126
190.500 19.994596
191.500 19.521751
192.500 19.089435
193.500 19.035396
194.500 18.859768
195.500 18.305863
196.700 18.211294
197.600 18.076196
198.400 17.711429
199.500 17.319643
200.500 17.198055
201.500 16.995407
202.500 16.806269
203.500 16.455012
204.500 16.211835
205.500 13.942178
206.500 14.550122
207.400 15.671440
207.800 15.509322
208.500 15.414753
209.500 15.144556
210.500 15.009457
211.500 14.874358
212.500 14.685220
213.500 14.455553
214.500 14.212375
215.500 14.131316
216.500 13.807079
217.500 13.712510
218.500 13.431505
219.500 13.362605
220.500 13.161308
221.500 12.866793
222.500 12.772224
223.500 12.612807
224.500 12.442583
225.500 12.142664
226.500 12.098082
227.500 11.940016
228.500 11.777898
229.500 11.503648
230.500 11.336125
231.500 11.287490
232.500 10.852472
233.500 10.971359
234.500 10.811943
235.500 10.697109
236.500 10.534991
237.500 10.405296
238.500 10.117536
239.500 10.120238
240.500 9.990543
241.500 9.859497
242.500 9.754121
243.500 9.612267
244.500 9.498784
245.500 9.378546
246.500 9.252905
247.500 9.134018
248.500 9.024588
249.500 8.663875
250.500 8.788165
251.300 8.411240
251.800 8.626047
252.500 8.561200
253.500 8.451770
254.500 8.339638
255.500 8.258579
256.500 8.154553
257.500 8.065388
258.500 7.966766
259.500 7.864091
260.500 7.768171
261.500 7.669549
262.500 7.585788
263.500 7.493921
264.500 7.434477
265.500 7.343961
266.500 7.242637
267.500 7.158876
268.500 7.095380
269.500 6.980546
270.500 6.923804
271.500 6.835990
272.500 6.730613
273.500 6.592813
274.500 6.579303
275.500 6.507701
276.500 6.417185
277.500 6.380708
278.500 6.302351
279.500 6.180762
280.500 6.136179
281.500 6.097001
282.500 6.002432
283.500 5.937584
284.500 5.887598
285.500 5.820049
286.500 5.761956
287.500 5.695758
288.500 5.634964
289.500 5.571467
291.000 5.485004
293.000 5.362064
295.000 5.225615
297.000 5.133748
299.000 5.022967
301.000 4.898676
303.000 4.777087
305.000 4.659551
307.000 4.546069
309.000 4.435288
311.000 4.328560
313.000 4.221832
315.000 4.124561
317.000 4.027290
319.000 3.912456
321.000 3.817887
323.000 3.751689
325.000 3.667928
327.000 3.585517
329.000 3.504458
331.000 3.430154
332.200 3.423399
332.300 3.438260
332.400 3.419346
332.500 3.405836
332.600 3.389624
332.700 3.378817
332.800 3.365307
332.900 3.362605
333.000 3.357201
333.100 3.354499
333.200 3.343691
333.300 3.319373
333.400 3.301810
333.500 3.282897
333.600 3.266685
333.700 3.262632
333.800 3.257228
333.900 3.246420
334.000 3.226155
334.100 3.235612
334.200 3.255877
334.300 3.316671
334.400 3.353148
334.500 3.384220
334.600 3.407187
334.700 3.415293
334.800 3.372062
334.900 3.301810
335.000 3.176169
335.100 3.155904
335.200 3.180222
335.300 3.188327
335.400 3.180222
335.500 3.165361
335.600 3.169414
335.700 3.178871
335.800 3.195082
335.900 3.207241
336.000 3.208592
336.100 3.200486
336.200 3.204539
336.300 3.196433
336.400 3.192380
336.500 3.161308
336.600 3.131586
336.700 3.108619
336.800 3.101864
336.900 3.112672
337.000 3.135639
337.100 3.132937
337.200 3.097811
337.300 3.091056
337.400 3.103215
337.500 3.132937
337.600 3.146447
337.700 3.120778
337.800 3.116725
337.900 3.126182
338.000 3.158606
338.100 3.186976
338.200 3.186976
338.300 3.173467
338.400 3.159957
338.500 3.180222
338.600 3.209943
338.700 3.226155
338.800 3.219400
338.900 3.189678
339.000 3.182924
339.100 3.182924
339.200 3.205890
339.300 3.222102
339.400 3.259930
339.500 3.257228
339.600 3.227506
339.700 3.189678
339.800 3.158606
339.900 3.088354
340.000 3.045123
340.100 3.049176
340.200 3.034315
340.300 3.020805
340.400 3.032964
340.500 3.043772
340.600 3.041070
340.700 3.047825
340.800 3.059984
340.900 3.066739
341.000 3.066739
341.100 3.030262
341.200 3.030262
341.300 3.055931
341.400 3.084302
341.500 3.100513
341.600 3.095109
341.700 3.091056
341.800 3.096460
341.900 3.103215
342.000 3.099162
342.100 3.100513
342.200 3.096460
342.300 3.105917
342.400 3.105917
342.500 3.095109
342.600 3.093758
342.700 3.095109
342.800 3.116725
342.900 3.122129
343.000 3.099162
343.100 3.091056
343.200 3.077547
343.300 3.078898
343.400 3.082951
343.500 3.100513
343.600 3.107268
343.700 3.097811
343.800 3.076196
343.900 3.054580
344.000 3.011348
344.100 2.997838
344.200 3.001891
344.300 3.027560
344.400 3.043772
344.500 3.016752
344.600 3.000540
344.700 2.992434
344.800 3.012699
344.900 3.035666
345.000 2.974872
345.100 2.928938
345.200 2.910024
345.300 2.912726
345.400 2.926236
345.500 2.926236
345.600 2.926236
345.700 2.922183
345.800 2.914077
345.900 2.905971
346.000 2.897865
346.100 2.896514
346.200 2.916779
346.300 2.999189
346.400 2.957309
346.500 2.946501
346.600 2.957309
346.700 2.954607
346.800 2.943799
346.900 2.946501
347.000 2.953256
347.100 2.911375
347.200 2.904620
347.300 2.937044
347.400 2.937044
347.500 2.923534
347.600 2.897865
347.700 2.841124
347.800 2.789787
347.900 2.777628
348.000 2.805998
348.100 2.845177
348.200 2.834369
348.300 2.803296
348.400 2.812753
348.500 2.869495
348.600 2.884356
348.700 2.896514
348.800 2.932991
348.900 2.946501
349.000 2.928938
349.100 2.922183
349.200 2.943799
349.300 2.939746
349.400 2.930289
349.500 2.915428
349.600 2.881654
349.700 2.884356
349.800 2.904620
349.900 2.911375
350.000 2.874899
350.100 2.816806
350.200 2.819508
350.300 2.833018
350.400 2.815455
350.500 2.783032
350.600 2.772224
350.700 2.784383
350.800 2.799243
350.900 2.799243
351.000 2.797892
351.100 2.797892
351.200 2.788436
351.300 2.773575
351.400 2.783032
351.500 2.792489
351.600 2.810051
351.700 2.793840
351.800 2.792489
351.900 2.805998
352.000 2.808700
352.100 2.804647
352.200 2.795190
352.300 2.792489
352.400 2.815455
352.500 2.784383
352.600 2.777628
352.700 2.778979
352.800 2.789787
352.900 2.807349
353.000 2.812753
353.100 2.819508
353.200 2.833018
353.300 2.816806
353.400 2.787085
353.500 2.781681
353.600 2.788436
353.700 2.765469
353.800 2.762767
353.900 2.765469
354.000 2.787085
354.100 2.803296
354.200 2.799243
354.300 2.788436
354.400 2.792489
354.500 2.797892
354.600 2.781681
354.700 2.785734
354.800 2.797892
354.900 2.801945
355.000 2.783032
355.100 2.768171
355.200 2.774926
355.300 2.785734
355.400 2.787085
355.500 2.774926
355.600 2.760065
355.700 2.766820
355.800 2.774926
355.900 2.772224
356.000 2.762767
356.100 2.774926
356.200 2.789787
356.300 2.778979
356.400 2.762767
356.500 2.768171
356.600 2.778979
356.700 2.751959
356.800 2.757363
356.900 2.745204
357.000 2.711429
357.100 2.647933
357.200 2.631721
357.300 2.635774
357.400 2.627668
357.500 2.627668
357.600 2.639827
357.700 2.639827
357.800 2.633072
357.900 2.622264
358.000 2.630370
358.100 2.642529
358.200 2.641178
358.300 2.634423
358.400 2.627668
358.500 2.619562
358.600 2.611456
358.700 2.601999
358.800 2.592543
358.900 2.591192
359.000 2.614158
359.100 2.626317
359.200 2.616860
359.300 2.615509
359.400 2.616860
359.500 2.611456
359.600 2.603350
359.700 2.604701
359.800 2.606052
359.900 2.612807
360.000 2.635774
360.100 2.631721
360.200 2.639827
360.300 2.627668
360.400 2.612807
360.500 2.612807
360.600 2.614158
360.700 2.614158
360.800 2.624966
360.900 2.635774
361.000 2.633072
361.100 2.600648
361.200 2.597947
361.300 2.589841
361.400 2.573629
361.500 2.576331
361.600 2.597947
361.700 2.614158
361.800 2.627668
361.900 2.633072
362.000 2.611456
362.100 2.604701
362.200 2.627668
362.300 2.626317
362.400 2.615509
362.500 2.615509
362.600 2.630370
362.700 2.637125
362.800 2.623615
362.900 2.610105
363.000 2.620913
363.100 2.631721
363.200 2.619562
363.300 2.601999
363.400 2.616860
363.500 2.611456
363.600 2.558768
363.700 2.537152
363.800 2.541205
363.900 2.543907
364.000 2.552013
364.100 2.568225
364.200 2.573629
364.300 2.552013
364.400 2.523642
364.500 2.520940
364.600 2.526344
364.700 2.531748
364.800 2.539854
364.900 2.547960
365.000 2.545258
365.100 2.531748
365.200 2.524993
365.300 2.522291
365.400 2.515536
365.500 2.519589
365.600 2.522291
365.700 2.515536
365.800 2.510132
365.900 2.504728
366.000 2.493921
366.100 2.487166
366.200 2.483113
366.300 2.495272
366.400 2.500675
366.500 2.491219
366.600 2.483113
366.700 2.470954
366.800 2.466901
366.900 2.473656
367.000 2.477709
367.100 2.473656
367.200 2.466901
367.300 2.461497
367.400 2.460146
367.500 2.456093
367.600 2.466901
367.700 2.449338
367.800 2.439881
367.900 2.439881
368.000 2.445285
368.100 2.457444
368.200 2.457444
368.300 2.450689
368.400 2.439881
368.500 2.430424
368.600 2.420967
368.700 2.423669
368.800 2.442583
368.900 2.468252
369.000 2.461497
369.100 2.430424
369.200 2.438530
369.300 2.456093
369.400 2.457444
369.500 2.445285
369.600 2.412861
369.700 2.391246
369.800 2.393948
369.900 2.442583
370.000 2.496623
370.100 2.489868
370.200 2.425020
370.300 2.327749
370.400 2.285869
370.500 2.285869
370.600 2.353418
370.700 2.420967
370.800 2.465550
370.900 2.438530
371.000 2.366928
371.100 2.289922
371.200 2.248041
371.300 2.272359
371.400 2.349365
371.500 2.465550
371.600 2.516887
371.700 2.533099
371.800 2.520940
371.900 2.435828
372.000 2.291273
372.100 2.218319
372.200 2.187247
372.300 2.238584
372.400 2.318292
372.500 2.411510
372.600 2.453391
372.700 2.508781
372.800 2.533099
372.900 2.538503
373.000 2.522291
373.100 2.456093
373.200 2.335855
373.300 2.219670
373.400 2.123750
373.500 2.114293
373.600 2.180492
373.700 2.314239
373.800 2.412861
373.900 2.524993
374.000 2.579033
374.100 2.607403
374.200 2.603350
374.300 2.574980
374.400 2.556066
374.500 2.527695
374.600 2.457444
374.700 2.346663
374.800 2.222372
374.900 2.071062
375.000 2.037287
375.100 2.083221
375.200 2.189949
375.300 2.284518
375.400 2.392597
375.500 2.452040
375.600 2.502026
375.700 2.504728
375.800 2.492570
375.900 2.477709
376.000 2.460146
376.100 2.446636
376.200 2.497974
376.300 2.522291
376.400 2.503377
376.500 2.461497
376.600 2.389895
376.700 2.311537
376.800 2.194002
376.900 2.058903
377.000 1.954877
377.100 1.927857
377.200 2.022426
377.300 2.168333
377.400 2.283167
377.500 2.373683
377.600 2.430424
377.700 2.465550
377.800 2.497974
377.900 2.510132
378.000 2.526344
378.100 2.537152
378.200 2.543907
378.300 2.530397
378.400 2.520940
378.500 2.535801
378.600 2.538503
378.700 2.524993
378.800 2.512834
378.900 2.497974
379.000 2.473656
379.100 2.446636
379.200 2.416914
379.300 2.373683
379.400 2.296677
379.500 2.172386
379.600 2.027830
379.700 1.885977
379.800 1.830586
379.900 1.896785
380.000 2.068360
380.100 2.202108
380.200 2.310186
380.300 2.368279
380.400 2.407457
380.500 2.442583
380.600 2.435828
380.700 2.449338
380.800 2.473656
380.900 2.495272
381.000 2.518238
381.100 2.527695
381.200 2.514185
381.300 2.496623
381.400 2.485815
381.500 2.479060
381.600 2.466901
381.700 2.450689
381.800 2.414212
381.900 2.373683
382.000 2.356120
382.100 2.365577
382.200 2.423669
382.300 2.447987
382.400 2.443934
382.500 2.427722
382.600 2.402053
382.700 2.403404
382.800 2.393948
382.900 2.352067
383.000 2.299379
383.100 2.226425
383.200 2.130505
383.300 1.995407
383.400 1.818427
383.500 1.736017
383.600 1.744123
383.700 1.867063
383.800 2.010267
383.900 2.152121
384.000 2.230478
384.100 2.299379
384.200 2.342610
384.300 2.391246
384.400 2.434477
384.500 2.462848
384.600 2.456093
384.700 2.454742
384.800 2.447987
384.900 2.454742
385.000 2.452040
385.100 2.466901
385.200 2.477709
385.300 2.469603
385.400 2.446636
385.500 2.425020
385.600 2.408808
385.700 2.406106
385.800 2.423669
385.900 2.454742
386.000 2.468252
386.100 2.470954
386.200 2.442583
386.300 2.395299
386.400 2.388544
386.500 2.385842
386.600 2.384491
386.700 2.396650
386.800 2.406106
386.900 2.404755
387.000 2.388544
387.100 2.366928
387.200 2.350716
387.300 2.356120
387.400 2.372332
387.500 2.387193
387.600 2.380438
387.700 2.362875
387.800 2.357471
387.900 2.358822
388.000 2.365577
388.100 2.341259
388.200 2.302081
388.300 2.262902
388.400 2.219670
388.500 2.135909
388.600 2.012969
388.700 1.835990
388.800 1.683329
388.900 1.621183
389.000 1.707647
389.100 1.877871
389.200 2.054850
389.300 2.162929
389.400 2.237233
389.500 2.280465
389.600 2.311537
389.700 2.338557
389.800 2.350716
389.900 2.357471
390.000 2.364226
390.100 2.381789
390.200 2.396650
390.300 2.406106
390.400 2.411510
390.500 2.407457
390.600 2.393948
390.700 2.400703
390.800 2.427722
390.900 2.437179
391.000 2.425020
391.100 2.425020
391.200 2.425020
391.300 2.404755
391.400 2.399352
391.500 2.410159
391.600 2.415563
391.700 2.412861
391.800 2.399352
391.900 2.369630
392.000 2.361524
392.100 2.357471
392.200 2.343961
392.300 2.318292
392.400 2.311537
392.500 2.322345
392.600 2.318292
392.700 2.326398
392.800 2.331802
392.900 2.337206
393.000 2.327749
393.100 2.271008
393.200 2.102135
393.300 1.856255
393.400 1.880573
393.500 2.096731
393.600 2.249392
393.700 2.311537
393.800 2.338557
393.900 2.350716
394.000 2.365577
394.100 2.376385
394.200 2.373683
394.300 2.354769
394.400 2.343961
394.500 2.318292
394.600 2.307484
394.700 2.311537
394.800 2.315590
394.900 2.314239
395.000 2.311537
395.100 2.304782
395.200 2.296677
395.300 2.292624
395.400 2.287220
395.500 2.275061
395.600 2.261551
395.700 2.250743
395.800 2.248041
395.900 2.250743
396.000 2.245339
396.100 2.230478
396.200 2.198055
396.300 2.149419
396.400 2.091327
396.500 2.025128
396.600 1.921102
396.700 1.688733
396.800 1.437449
396.900 1.340043
397.000 1.384761
397.100 1.518509
397.200 1.700892
397.300 1.848149
397.400 1.962983
397.500 2.045393
397.600 2.103486
397.700 2.135909
397.800 2.149419
397.900 2.179141
398.000 2.192651
398.100 2.203459
398.200 2.204810
398.300 2.199406
398.400 2.207511
398.500 2.218319
398.600 2.189949
398.700 2.141313
398.800 2.207511
398.900 2.227776
399.000 2.243988
399.100 2.254796
399.200 2.256147
399.300 2.249392
399.400 2.230478
399.500 2.227776
399.600 2.221021
399.700 2.222372
399.800 2.229127
399.900 2.238584
400.000 2.221021
400.100 2.206160
400.200 2.206160
400.300 2.203459
400.400 2.204810
400.500 2.204810
400.600 2.203459
400.700 2.198055
400.800 2.194002
400.900 2.180492
401.000 2.176439
401.100 2.194002
401.200 2.203459
401.300 2.212915
401.400 2.219670
401.500 2.221021
401.600 2.222372
401.700 2.229127
401.800 2.238584
401.900 2.246690
402.000 2.242637
402.100 2.227776
402.200 2.216968
402.300 2.177790
402.400 2.112942
402.500 2.044042
402.600 2.023777
402.700 2.062956
402.800 2.134558
402.900 2.177790
403.000 2.215617
403.100 2.219670
403.200 2.221021
403.300 2.216968
403.400 2.216968
403.500 2.221021
403.600 2.222372
403.700 2.221021
403.800 2.222372
403.900 2.216968
404.000 2.218319
404.100 2.227776
404.200 2.221021
404.300 2.211564
404.400 2.203459
404.500 2.195353
404.600 2.192651
404.700 2.206160
404.800 2.218319
404.900 2.221021
405.000 2.215617
405.100 2.214266
405.200 2.221021
405.300 2.211564
405.400 2.208862
405.500 2.216968
405.600 2.215617
405.700 2.216968
405.800 2.222372
405.900 2.223723
406.000 2.218319
406.100 2.198055
406.200 2.185896
406.300 2.187247
406.400 2.145366
406.500 2.046744
406.600 2.075115
406.700 2.115644
406.800 2.116995
406.900 2.104837
407.000 2.089976
407.100 2.083221
407.200 2.091327
407.300 2.087274
407.400 2.091327
407.500 2.088625
407.600 2.073764
407.700 2.062956
407.800 2.068360
407.900 2.089976
408.000 2.104837
408.100 2.108889
408.200 2.104837
408.300 2.100784
408.400 2.081870
408.500 2.075115
408.600 2.068360
408.700 2.079168
408.800 2.085923
408.900 2.083221
409.000 2.065658
409.100 2.054850
409.200 2.049446
409.300 2.029181
409.400 2.002162
409.500 1.957579
409.600 1.911646
409.700 1.860308
409.800 1.765739
409.900 1.649554
410.000 1.509052
410.100 1.383410
410.200 1.363145
410.300 1.461767
410.400 1.623885
410.500 1.779249
410.600 1.864361
410.700 1.911646
410.800 1.950824
410.900 1.967036
411.000 1.983248
411.100 2.000811
411.200 2.015671
411.300 2.027830
411.400 2.045393
411.500 2.062956
411.600 2.072413
411.700 2.061605
411.800 2.035936
411.900 2.018373
412.000 2.008917
412.100 2.014320
412.200 2.021075
412.300 2.034585
412.400 2.046744
412.500 2.056201
412.600 2.052148
412.700 2.030532
412.800 2.008917
412.900 2.004864
413.000 2.011618
413.100 2.019724
413.200 2.025128
413.300 2.031883
413.400 2.046744
413.500 2.057552
413.600 2.058903
413.700 2.057552
413.800 2.062956
413.900 2.062956
414.000 2.060254
414.100 2.054850
