# Wavelength (nm)   F_lamA (normalized erg/cm2/s/A)9.100 0.000022
9.400 0.000033
9.600 0.000043
9.800 0.000055
10.000 0.000069
10.200 0.000087
10.400 0.000107
10.600 0.000131
10.800 0.000159
11.000 0.000192
11.400 0.000272
11.800 0.000375
12.100 0.000470
12.500 0.000620
12.700 0.000707
12.800 0.000754
13.100 0.000906
13.200 0.000962
13.400 0.001079
13.700 0.001272
14.000 0.001486
14.300 0.001722
14.700 0.002071
15.100 0.002463
15.500 0.002892
15.900 0.003363
16.200 0.003741
16.600 0.004280
17.000 0.004854
17.300 0.005308
17.700 0.005941
18.000 0.006438
18.200 0.006777
18.600 0.007475
19.100 0.008384
19.400 0.008947
19.800 0.009712
20.200 0.010493
20.500 0.011088
21.000 0.012094
21.600 0.013316
22.000 0.014137
22.300 0.014752
22.700 0.015571
23.000 0.139842
23.400 0.138543
24.000 0.137018
24.600 0.136114
25.200 0.135153
25.700 0.130088
26.000 0.131764
26.400 0.131953
26.900 0.129825
27.400 0.127773
27.900 0.124346
28.400 0.123254
29.000 0.120297
29.600 0.116061
30.100 0.109038
30.800 0.107155
31.800 0.105912
32.800 0.101695
33.800 0.097044
34.800 0.092676
35.700 0.089719
36.600 0.087083
37.500 0.083638
38.500 0.079119
39.500 0.076728
40.500 0.074016
41.400 0.071248
42.200 0.068593
43.000 0.066202
44.100 0.063717
45.100 0.061175
46.000 0.058671
47.000 0.056298
48.000 0.054284
49.000 0.051836
50.000 0.050160
50.600 0.049972
51.200 0.051873
52.000 0.050122
53.000 0.048127
54.000 0.045585
55.000 0.043890
56.000 0.043438
57.000 0.042064
58.000 0.040369
59.000 0.039202
60.000 0.037564
61.000 0.036114
62.000 0.035568
63.000 0.034287
64.000 0.033365
65.000 0.032197
65.800 0.031181
66.500 0.030766
67.500 0.029957
68.500 0.028676
69.500 0.028168
70.500 0.026888
71.600 0.026511
72.600 0.025796
73.500 0.025155
74.500 0.024365
75.500 0.023649
76.500 0.022821
77.500 0.022350
78.500 0.021710
79.500 0.021182
80.500 0.020655
81.500 0.020166
82.500 0.019676
83.500 0.018772
84.500 0.018674
85.500 0.018175
86.500 0.017806
87.500 0.017388
88.500 0.016963
89.500 0.016556
90.500 0.016097
91.500 0.018942
92.500 0.027114
93.500 0.034664
94.500 0.045340
95.500 0.049124
96.500 0.054434
97.500 0.035530
98.500 0.053417
99.500 0.050725
100.500 0.052815
101.500 0.050518
102.500 0.034739
103.500 0.046319
104.500 0.051629
105.500 0.050518
106.500 0.047449
107.500 0.048240
108.500 0.044888
109.500 0.047147
110.500 0.045434
111.500 0.044737
112.500 0.042516
113.500 0.043438
114.500 0.041819
115.500 0.041518
116.500 0.041047
117.500 0.036509
118.500 0.038957
119.500 0.036453
120.500 0.033346
121.500 0.023272
122.500 0.032894
123.500 0.035040
124.500 0.035078
125.500 0.034702
126.500 0.033854
127.500 0.034061
128.500 0.033666
129.500 0.032084
130.500 0.031651
131.500 0.032103
132.500 0.031275
133.500 0.030239
134.500 0.030522
135.500 0.030070
136.500 0.029222
137.500 0.028789
138.500 0.028545
139.500 0.026831
140.500 0.026417
141.500 0.027170
142.500 0.026624
143.500 0.026379
144.200 0.026285
144.700 0.026059
145.500 0.025720
146.500 0.025193
147.500 0.024873
148.500 0.024590
149.500 0.024252
150.500 0.023875
151.200 0.023442
151.700 0.023404
152.500 0.023272
153.500 0.022726
154.500 0.022557
155.500 0.022915
156.500 0.023272
157.500 0.025325
158.500 0.027942
159.500 0.029128
160.500 0.027396
161.500 0.030088
162.500 0.030277
163.500 0.030804
164.500 0.037168
165.500 0.030729
166.500 0.043419
167.200 0.036754
167.700 0.051158
168.500 0.054848
169.500 0.053003
170.500 0.057466
171.500 0.064734
172.500 0.067144
173.500 0.074355
174.500 0.074506
175.500 0.081793
176.500 0.070100
177.500 0.079797
178.500 0.084598
179.500 0.093881
180.500 0.108209
181.500 0.111486
182.500 0.104349
183.500 0.109697
184.500 0.093881
185.500 0.104029
186.500 0.115157
187.500 0.114498
188.500 0.117228
189.500 0.124440
190.500 0.120354
191.500 0.129806
192.500 0.132725
193.500 0.116513
194.500 0.140915
195.500 0.143608
196.700 0.155658
197.600 0.151892
198.400 0.151553
199.500 0.151290
200.500 0.143419
201.500 0.150781
202.500 0.135398
203.500 0.158200
204.500 0.170382
205.500 0.169177
206.500 0.166315
207.400 0.186217
207.800 0.189983
208.500 0.188853
209.500 0.183468
210.500 0.177575
211.500 0.187931
212.500 0.186067
213.500 0.171286
214.500 0.192619
215.500 0.190360
216.500 0.179458
217.500 0.180832
218.500 0.195067
219.500 0.213707
220.500 0.206364
221.500 0.191113
222.500 0.201092
223.500 0.229712
224.500 0.214272
225.500 0.199209
226.500 0.192243
227.500 0.208624
228.500 0.222180
229.500 0.205988
230.500 0.224063
231.500 0.225381
232.500 0.200904
233.500 0.204858
234.500 0.172999
235.500 0.228959
236.500 0.186424
237.500 0.214084
238.500 0.163397
239.500 0.190736
240.500 0.188025
241.500 0.194502
242.500 0.241951
243.500 0.236302
244.500 0.253813
245.500 0.253625
246.500 0.256072
247.500 0.236302
248.500 0.217285
249.500 0.220109
250.500 0.269064
251.300 0.218979
251.800 0.189606
252.500 0.186688
253.500 0.207870
254.500 0.215779
255.500 0.250800
256.500 0.243457
257.500 0.271135
258.500 0.268311
259.500 0.261156
260.500 0.246093
261.500 0.230277
262.500 0.271512
263.500 0.299190
264.500 0.355677
265.500 0.377518
266.500 0.337413
267.500 0.361137
268.500 0.376012
269.500 0.334777
270.500 0.352476
271.500 0.315007
272.500 0.316325
273.500 0.342120
274.500 0.269064
275.500 0.301826
276.500 0.341367
277.500 0.362832
278.500 0.323668
279.500 0.163830
280.500 0.200904
281.500 0.378648
282.500 0.401431
283.500 0.393711
284.500 0.369610
285.500 0.299755
286.500 0.393523
287.500 0.403879
288.500 0.406326
289.500 0.411787
291.000 0.457164
293.000 0.446055
295.000 0.439842
297.000 0.448127
299.000 0.456788
301.000 0.464508
303.000 0.471851
305.000 0.486161
307.000 0.483713
309.000 0.484466
311.000 0.490491
313.000 0.488985
315.000 0.490491
317.000 0.507249
319.000 0.484278
321.000 0.508755
323.000 0.490303
325.000 0.534363
327.000 0.568631
329.000 0.570514
331.000 0.572585
332.200 0.588778
332.300 0.545660
332.400 0.528337
332.500 0.544342
332.600 0.537564
332.700 0.528337
332.800 0.537752
332.900 0.555639
333.000 0.591226
333.100 0.605724
333.200 0.588778
333.300 0.586707
333.400 0.573903
333.500 0.572020
333.600 0.561100
333.700 0.553003
333.800 0.566937
333.900 0.576728
334.000 0.583506
334.100 0.590849
334.200 0.579175
334.300 0.584259
334.400 0.597251
334.500 0.594427
334.600 0.595368
334.700 0.565054
334.800 0.533421
334.900 0.513463
335.000 0.533986
335.100 0.549237
335.200 0.543400
335.300 0.542082
335.400 0.564677
335.500 0.595933
335.600 0.594238
335.700 0.567690
335.800 0.512333
335.900 0.466767
336.000 0.435511
336.100 0.453775
336.200 0.485596
336.300 0.530973
336.400 0.561853
336.500 0.553380
336.600 0.546413
336.700 0.546413
336.800 0.537375
336.900 0.528902
337.000 0.486161
337.100 0.456035
337.200 0.459612
337.300 0.488609
337.400 0.523818
337.500 0.559593
337.600 0.570702
337.700 0.563359
337.800 0.544530
337.900 0.532856
338.000 0.542459
338.100 0.551497
338.200 0.556392
338.300 0.557146
338.400 0.560723
338.500 0.574280
338.600 0.562041
338.700 0.533798
338.800 0.511391
338.900 0.527773
339.000 0.556392
339.100 0.583506
339.200 0.573715
339.300 0.553191
339.400 0.554321
339.500 0.564865
339.600 0.586519
339.700 0.599322
339.800 0.613444
339.900 0.624365
340.000 0.622858
340.100 0.613444
340.200 0.578046
340.300 0.564865
340.400 0.551685
340.500 0.565054
340.600 0.573903
340.700 0.567878
340.800 0.551309
340.900 0.548673
341.000 0.571267
341.100 0.569008
341.200 0.558087
341.300 0.536434
341.400 0.532103
341.500 0.558275
341.600 0.585201
341.700 0.597439
341.800 0.603276
341.900 0.606289
342.000 0.613444
342.100 0.614574
342.200 0.588966
342.300 0.554133
342.400 0.545472
342.500 0.557899
342.600 0.572209
342.700 0.589908
342.800 0.616080
342.900 0.634909
343.000 0.648654
343.100 0.621164
343.200 0.590473
343.300 0.576728
343.400 0.598192
343.500 0.631331
343.600 0.634720
343.700 0.612879
343.800 0.590096
343.900 0.572020
344.000 0.555639
344.100 0.533798
344.200 0.520241
344.300 0.520429
344.400 0.530973
344.500 0.546601
344.600 0.576916
344.700 0.614009
344.800 0.638298
344.900 0.649407
345.000 0.628695
345.100 0.595556
345.200 0.571267
345.300 0.570702
345.400 0.582376
345.500 0.600828
345.600 0.605724
345.700 0.602335
345.800 0.596121
345.900 0.585577
346.000 0.567313
346.100 0.554886
346.200 0.570702
346.300 0.579175
346.400 0.589343
346.500 0.577481
346.600 0.578799
346.700 0.599699
346.800 0.623800
346.900 0.641687
347.000 0.646771
347.100 0.637356
347.200 0.626624
347.300 0.593485
347.400 0.565242
347.500 0.555451
347.600 0.558840
347.700 0.589343
347.800 0.615327
347.900 0.629260
348.000 0.643758
348.100 0.645265
348.200 0.637168
348.300 0.630013
348.400 0.623800
348.500 0.630390
348.600 0.643193
348.700 0.642064
348.800 0.630766
348.900 0.608737
349.000 0.589155
349.100 0.594427
349.200 0.615515
349.300 0.620599
349.400 0.615138
349.500 0.602900
349.600 0.591037
349.700 0.597439
349.800 0.594615
349.900 0.597063
350.000 0.597063
350.100 0.595556
350.200 0.609113
350.300 0.617774
350.400 0.621164
350.500 0.610055
350.600 0.595180
350.700 0.587648
350.800 0.582188
350.900 0.592732
351.000 0.597816
351.100 0.598569
351.200 0.588401
351.300 0.574656
351.400 0.575410
351.500 0.588778
351.600 0.623800
351.700 0.651666
351.800 0.656185
351.900 0.627942
352.000 0.602335
352.100 0.590849
352.200 0.582941
352.300 0.576728
352.400 0.558840
352.500 0.544154
352.600 0.555263
352.700 0.573338
352.800 0.596686
352.900 0.617586
353.000 0.631708
353.100 0.644888
353.200 0.636227
353.300 0.595180
353.400 0.569949
353.500 0.566372
353.600 0.601582
353.700 0.646018
353.800 0.663152
353.900 0.670119
354.000 0.662964
354.100 0.655620
354.200 0.654491
354.300 0.667859
354.400 0.677274
354.500 0.671248
354.600 0.663152
354.700 0.652608
354.800 0.647524
354.900 0.652231
355.000 0.665788
355.100 0.679721
355.200 0.674449
355.300 0.650160
355.400 0.631143
355.500 0.633026
355.600 0.646018
355.700 0.665788
355.800 0.680286
355.900 0.681039
356.000 0.678968
356.100 0.677650
356.200 0.671248
356.300 0.652796
356.400 0.627942
356.500 0.603465
356.600 0.591979
356.700 0.595745
356.800 0.598757
356.900 0.597063
357.000 0.581058
357.100 0.568443
357.200 0.568255
357.300 0.573903
357.400 0.582753
357.500 0.597063
357.600 0.609113
357.700 0.617021
357.800 0.624741
357.900 0.617398
358.000 0.598757
358.100 0.580305
358.200 0.567878
358.300 0.569949
358.400 0.566372
358.500 0.549426
358.600 0.524760
358.700 0.513463
358.800 0.528526
358.900 0.567125
359.000 0.603276
359.100 0.620222
359.200 0.617774
359.300 0.612502
359.400 0.619092
359.500 0.637168
359.600 0.653173
359.700 0.659951
359.800 0.659763
359.900 0.657315
360.000 0.654302
360.100 0.634156
360.200 0.618339
360.300 0.612879
360.400 0.625494
360.500 0.636980
360.600 0.630390
360.700 0.618904
360.800 0.606289
360.900 0.603465
361.000 0.604029
361.100 0.607795
361.200 0.619846
361.300 0.631143
361.400 0.645641
361.500 0.672190
361.600 0.669742
361.700 0.651855
361.800 0.627754
361.900 0.607042
362.000 0.617774
362.100 0.636603
362.200 0.649595
362.300 0.659386
362.400 0.668612
362.500 0.688571
362.600 0.716814
362.700 0.744116
362.800 0.734890
362.900 0.699115
363.000 0.644323
363.100 0.614385
363.200 0.623988
363.300 0.652043
363.400 0.667671
363.500 0.658256
363.600 0.655244
363.700 0.674073
363.800 0.694220
363.900 0.704387
364.000 0.707023
364.100 0.700810
364.200 0.685747
364.300 0.671437
364.400 0.659951
364.500 0.652796
364.600 0.647712
364.700 0.645265
364.800 0.643947
364.900 0.641122
365.000 0.641875
365.100 0.647712
365.200 0.665600
365.300 0.683299
365.400 0.701186
365.500 0.720392
365.600 0.733572
365.700 0.737526
365.800 0.732630
365.900 0.729429
366.000 0.727547
366.100 0.717567
366.200 0.704387
366.300 0.694408
366.400 0.698174
366.500 0.709094
366.600 0.713990
366.700 0.714931
366.800 0.704764
366.900 0.689136
367.000 0.682546
367.100 0.688947
367.200 0.702504
367.300 0.713048
367.400 0.711730
367.500 0.705329
367.600 0.689701
367.700 0.668424
367.800 0.651290
367.900 0.652420
368.000 0.660892
368.100 0.665600
368.200 0.670119
368.300 0.670683
368.400 0.673320
368.500 0.667294
368.600 0.661269
368.700 0.664093
368.800 0.678027
368.900 0.701939
369.000 0.712484
369.100 0.714743
369.200 0.713048
369.300 0.707023
369.400 0.704952
369.500 0.711166
369.600 0.709659
369.700 0.702128
369.800 0.710789
369.900 0.727735
370.000 0.751271
370.100 0.747129
370.200 0.711354
370.300 0.662399
370.400 0.627001
370.500 0.616456
370.600 0.623988
370.700 0.636227
370.800 0.653549
370.900 0.658256
371.000 0.644135
371.100 0.631519
371.200 0.634909
371.300 0.666541
371.400 0.705517
371.500 0.736584
371.600 0.750894
371.700 0.747882
371.800 0.719074
371.900 0.670119
372.000 0.593674
372.100 0.545660
372.200 0.554510
372.300 0.605347
372.400 0.671625
372.500 0.713990
372.600 0.724346
372.700 0.725287
372.800 0.727735
372.900 0.734325
373.000 0.734325
373.100 0.712484
373.200 0.640369
373.300 0.567878
373.400 0.516287
373.500 0.505743
373.600 0.538317
373.700 0.603465
373.800 0.661081
373.900 0.717944
374.000 0.751648
374.100 0.758238
374.200 0.735266
374.300 0.709471
374.400 0.685935
374.500 0.662211
374.600 0.648277
374.700 0.615515
374.800 0.579175
374.900 0.543965
375.000 0.533045
375.100 0.566748
375.200 0.629260
375.300 0.697232
375.400 0.746564
375.500 0.769912
375.600 0.767087
375.700 0.739220
375.800 0.711354
375.900 0.700056
376.000 0.702504
376.100 0.724534
376.200 0.739220
376.300 0.742045
376.400 0.735266
376.500 0.724722
376.600 0.710036
376.700 0.686123
376.800 0.644135
376.900 0.597628
377.000 0.568255
377.100 0.584071
377.200 0.630013
377.300 0.690642
377.400 0.732254
377.500 0.745057
377.600 0.749200
377.700 0.759367
377.800 0.785539
377.900 0.813594
378.000 0.836566
378.100 0.842779
378.200 0.836566
378.300 0.825645
378.400 0.817548
378.500 0.803615
378.600 0.790812
378.700 0.774242
378.800 0.760121
378.900 0.758802
379.000 0.762380
379.100 0.762192
379.200 0.757484
379.300 0.731877
379.400 0.697044
379.500 0.651290
379.600 0.602711
379.700 0.558275
379.800 0.540764
379.900 0.564489
380.000 0.644888
380.100 0.715684
380.200 0.769347
380.300 0.789682
380.400 0.793824
380.500 0.792694
380.600 0.790247
380.700 0.797025
380.800 0.812653
380.900 0.831858
381.000 0.848051
381.100 0.846733
381.200 0.816230
381.300 0.785163
381.400 0.760121
381.500 0.757108
381.600 0.774807
381.700 0.798155
381.800 0.804557
381.900 0.780644
382.000 0.757484
382.100 0.749011
382.200 0.764451
382.300 0.772171
382.400 0.747317
382.500 0.721898
382.600 0.707023
382.700 0.692148
382.800 0.682546
382.900 0.672378
383.000 0.660704
383.100 0.640557
383.200 0.603841
383.300 0.550367
383.400 0.499529
383.500 0.482395
383.600 0.496328
383.700 0.530597
383.800 0.569573
383.900 0.609113
384.000 0.641122
384.100 0.682734
384.200 0.724911
384.300 0.767652
384.400 0.798908
384.500 0.809452
384.600 0.821879
384.700 0.834118
384.800 0.839013
384.900 0.830164
385.000 0.817925
385.100 0.828469
385.200 0.849369
385.300 0.869893
385.400 0.867445
385.500 0.850687
385.600 0.830540
385.700 0.816230
385.800 0.797213
385.900 0.789494
386.000 0.796272
386.100 0.818113
386.200 0.842967
386.300 0.858972
386.400 0.857842
386.500 0.851817
386.600 0.852947
386.700 0.858031
386.800 0.864621
386.900 0.862926
387.000 0.847675
387.100 0.828469
387.200 0.804368
387.300 0.793448
387.400 0.797402
387.500 0.809452
387.600 0.807946
387.700 0.787234
387.800 0.764828
387.900 0.756731
388.000 0.769535
388.100 0.777820
388.200 0.766334
388.300 0.751836
388.400 0.735643
388.500 0.695726
388.600 0.643947
388.700 0.579928
388.800 0.536246
388.900 0.534363
389.000 0.577857
389.100 0.639239
389.200 0.697609
389.300 0.724346
389.400 0.731877
389.500 0.745434
389.600 0.760121
389.700 0.780456
389.800 0.795895
389.900 0.796837
390.000 0.801732
390.100 0.811335
390.200 0.809640
390.300 0.805121
390.400 0.791188
390.500 0.786857
390.600 0.793448
390.700 0.819620
390.800 0.848804
390.900 0.874788
391.000 0.886650
391.100 0.888910
391.200 0.890793
391.300 0.889098
391.400 0.872340
391.500 0.860855
391.600 0.860290
391.700 0.856524
391.800 0.847298
391.900 0.834306
392.000 0.827528
392.100 0.821691
392.200 0.821314
392.300 0.829222
392.400 0.830164
392.500 0.826398
392.600 0.798908
392.700 0.761439
392.800 0.710789
392.900 0.643758
393.000 0.570702
393.100 0.452081
393.200 0.340237
393.300 0.264922
393.400 0.263039
393.500 0.331953
393.600 0.459236
393.700 0.561664
393.800 0.665788
393.900 0.734137
394.000 0.774242
394.100 0.799661
394.200 0.808511
394.300 0.803615
394.400 0.805498
394.500 0.819431
394.600 0.839578
394.700 0.851817
394.800 0.848051
394.900 0.841461
395.000 0.838260
395.100 0.835436
395.200 0.834118
395.300 0.847675
395.400 0.855771
395.500 0.850122
395.600 0.838449
395.700 0.825645
395.800 0.827151
395.900 0.832235
396.000 0.805310
396.100 0.773489
396.200 0.735266
396.300 0.696102
396.400 0.665223
396.500 0.582000
396.600 0.484843
396.700 0.364903
396.800 0.284880
396.900 0.269629
397.000 0.337036
397.100 0.433252
397.200 0.547355
397.300 0.626059
397.400 0.687253
397.500 0.735643
397.600 0.768217
397.700 0.802109
397.800 0.827904
397.900 0.850687
398.000 0.857654
398.100 0.852570
398.200 0.856712
398.300 0.863303
398.400 0.877236
398.500 0.892299
398.600 0.903596
398.700 0.917718
398.800 0.927697
398.900 0.926568
399.000 0.924873
399.100 0.929768
399.200 0.939748
399.300 0.949915
399.400 0.951045
399.500 0.941442
399.600 0.918095
399.700 0.903408
399.800 0.902843
399.900 0.922425
400.000 0.939183
400.100 0.951233
400.200 0.955376
400.300 0.952175
400.400 0.934664
400.500 0.914140
400.600 0.915458
400.700 0.931086
400.800 0.954434
400.900 0.968556
401.000 0.973263
401.100 0.975523
401.200 0.975523
401.300 0.972133
401.400 0.972698
401.500 0.979853
401.600 0.984937
401.700 0.984372
401.800 0.988703
401.900 0.992657
402.000 0.997176
402.100 0.993975
402.200 0.987385
402.300 0.983054
402.400 0.979665
402.500 0.982301
402.600 0.991339
402.700 1.007532
402.800 1.008285
402.900 0.996799
403.000 0.968368
403.100 0.945961
403.200 0.936547
403.300 0.939559
403.400 0.949915
403.500 0.972322
403.600 0.996799
403.700 1.021277
403.800 1.027678
403.900 1.022595
404.000 1.011674
404.100 1.002824
404.200 1.000753
404.300 0.984372
404.400 0.953869
404.500 0.924873
404.600 0.916965
404.700 0.945585
404.800 0.981736
404.900 1.007155
405.000 1.010168
405.100 1.011109
405.200 1.004895
405.300 0.995105
405.400 0.989832
405.500 0.984749
405.600 0.983431
405.700 0.982677
405.800 0.985878
405.900 1.002259
406.000 1.011109
406.100 1.005084
406.200 0.967991
406.300 0.938053
406.400 0.928074
406.500 0.933722
406.600 0.946714
406.700 0.955376
406.800 0.957447
406.900 0.957823
407.000 0.951045
407.100 0.930145
407.200 0.922425
407.300 0.931275
407.400 0.940313
407.500 0.937488
407.600 0.915082
407.700 0.894558
407.800 0.883638
407.900 0.902655
408.000 0.931086
408.100 0.955752
408.200 0.962342
408.300 0.951610
408.400 0.937677
408.500 0.930145
408.600 0.938618
408.700 0.952551
408.800 0.965732
408.900 0.966108
409.000 0.960271
409.100 0.953493
409.200 0.949915
409.300 0.938241
409.400 0.923555
409.500 0.902278
409.600 0.877424
409.700 0.854830
409.800 0.820561
409.900 0.773677
410.000 0.700056
410.100 0.643005
410.200 0.628319
410.300 0.691019
410.400 0.765393
410.500 0.831105
410.600 0.866692
410.700 0.883638
410.800 0.897006
410.900 0.903031
411.000 0.912822
411.100 0.922425
411.200 0.933158
411.300 0.945020
411.400 0.956317
411.500 0.970815
411.600 0.972698
411.700 0.964037
411.800 0.951422
411.900 0.938241
412.000 0.940124
412.100 0.948409
412.200 0.958200
412.300 0.963284
412.400 0.965732
412.500 0.972322
412.600 0.974769
412.700 0.972510
412.800 0.971004
412.900 0.974016
413.000 0.969497
413.100 0.956505
413.200 0.939936
413.300 0.938430
413.400 0.953116
413.500 0.971192
413.600 0.985690
413.700 0.999435
413.800 1.011862
413.900 1.022595
414.000 1.016758
414.100 0.997552
414.200 0.971945
414.300 0.950857
414.400 0.952175
414.500 0.967426
414.600 0.987573
414.700 0.991339
414.800 0.988514
414.900 0.991339
415.000 0.993975
415.100 0.995481
415.200 0.989079
415.300 0.981359
415.400 0.974204
415.500 0.971945
