# Wavelength (nm)   F_lamA (normalized erg/cm2/s/A)9.100 0.000001
9.400 0.000001
9.600 0.000002
9.800 0.000004
10.000 0.000006
10.200 0.000009
10.400 0.000013
10.600 0.000019
10.800 0.000027
11.000 0.000039
11.400 0.000077
11.800 0.000143
12.100 0.000220
12.500 0.000379
12.700 0.000489
12.800 0.000555
13.100 0.000796
13.200 0.000895
13.400 0.001123
13.700 0.001556
14.000 0.002121
14.300 0.002848
14.700 0.004130
15.100 0.005853
15.500 0.008119
15.900 0.011052
16.200 0.013762
16.600 0.018165
17.000 0.023612
17.300 0.028465
17.700 0.036094
18.000 0.042776
18.200 0.047720
18.600 0.058877
19.100 0.075441
19.400 0.086806
19.800 0.103919
20.200 0.123318
20.500 0.139386
21.000 0.169366
21.600 0.210777
22.000 0.241803
22.300 0.266884
22.700 0.302939
23.000 9.980405
23.400 10.992815
24.000 14.193338
24.600 19.412149
25.200 23.723057
25.700 18.347485
26.000 26.211626
26.400 33.096016
26.900 33.683867
27.400 34.206401
27.900 32.887002
28.400 34.598302
29.000 34.428478
29.600 31.645983
30.100 21.933377
30.800 27.263227
31.800 33.938602
32.800 34.023514
33.800 33.350751
34.800 32.736773
35.700 33.213586
36.600 33.598955
37.500 33.037231
38.500 31.273677
39.500 32.070542
40.500 32.109732
41.400 31.678641
42.200 30.881777
43.000 30.359242
44.100 30.398432
45.100 29.888961
46.000 29.065970
47.000 28.556499
48.000 28.295232
49.000 27.400392
50.000 27.322012
50.600 29.386022
51.200 34.807315
52.000 34.134553
53.000 33.520575
54.000 31.763553
55.000 31.371653
56.000 32.207707
57.000 31.783148
58.000 30.796865
59.000 30.646636
60.000 29.751796
61.000 28.909210
62.000 29.203135
63.000 28.576094
64.000 28.275637
65.000 27.642064
65.800 26.943174
66.500 26.988896
67.500 26.694971
68.500 25.728282
69.500 25.780536
70.500 24.781189
71.600 24.924886
72.600 24.552580
73.500 24.219464
74.500 23.703462
75.500 23.265839
76.500 22.684520
77.500 22.482038
78.500 22.083605
79.500 21.750490
80.500 21.463096
81.500 21.156107
82.500 20.875245
83.500 20.000000
84.500 20.176355
85.500 19.810581
86.500 19.608099
87.500 19.314174
88.500 19.007185
89.500 18.700196
90.500 18.282169
91.500 19.503592
92.500 33.546702
93.500 46.205095
94.500 65.382103
95.500 71.848465
96.500 82.299151
97.500 52.847812
98.500 81.907250
99.500 77.465709
100.500 80.274331
101.500 75.702155
102.500 48.922273
103.500 70.542129
104.500 75.832789
105.500 74.395820
106.500 70.476813
107.500 70.346179
108.500 65.447420
109.500 68.125408
110.500 65.774004
111.500 64.461137
112.500 61.436969
113.500 61.894187
114.500 59.830176
115.500 58.941868
116.500 57.792293
117.500 51.887655
118.500 54.663619
119.500 52.495101
120.500 48.941868
121.500 33.089484
122.500 47.165251
123.500 48.785108
124.500 47.975180
125.500 47.485304
126.500 46.472894
127.500 45.885042
128.500 45.016329
129.500 43.265839
130.500 42.560418
131.500 42.344873
132.500 41.188766
133.500 40.058785
134.500 39.777923
135.500 39.046375
136.500 38.105813
137.500 37.328543
138.500 36.688439
139.500 34.559112
140.500 33.683867
141.500 34.565643
142.500 33.755715
143.500 33.259308
144.200 32.854344
144.700 32.521228
145.500 31.979099
146.500 31.352057
147.500 30.770738
148.500 30.235140
149.500 29.634226
150.500 29.000653
151.200 28.569562
151.700 28.347485
152.500 27.877204
153.500 26.936643
154.500 26.087524
155.500 25.623775
156.500 25.617244
157.500 25.342913
158.500 24.983671
159.500 24.572175
160.500 23.827564
161.500 23.403005
162.500 23.037231
163.500 22.553886
164.500 21.678641
165.500 22.005225
166.500 21.704768
167.200 21.267146
167.700 21.365121
168.500 21.058132
169.500 20.659700
170.500 20.254735
171.500 19.764860
172.500 19.483997
173.500 19.314174
174.500 18.948400
175.500 18.667538
176.500 18.249510
177.500 18.040496
178.500 17.785761
179.500 17.517962
180.500 17.263227
181.500 16.936643
182.500 16.675376
183.500 16.414108
184.500 16.009144
185.500 15.669497
186.500 15.499673
187.500 15.362508
188.500 14.957544
189.500 14.630960
190.500 14.591770
191.500 14.239059
192.500 13.977792
193.500 13.886349
194.500 13.762247
195.500 13.376878
196.700 13.298498
197.600 13.180927
198.400 12.939255
199.500 12.638798
200.500 12.573481
201.500 12.423253
202.500 12.273024
203.500 12.044415
204.500 11.868060
205.500 10.600914
206.500 10.822992
207.400 11.443501
207.800 11.325931
208.500 11.260614
209.500 11.064664
210.500 10.966688
211.500 10.862182
212.500 10.725016
213.500 10.555193
214.500 10.391901
215.500 10.300457
216.500 10.097975
217.500 10.006532
218.500 9.823645
219.500 9.758328
220.500 9.608099
221.500 9.418681
222.500 9.333769
223.500 9.222730
224.500 9.098628
225.500 8.909210
226.500 8.843893
227.500 8.739386
228.500 8.628347
229.500 8.432397
230.500 8.334422
231.500 8.275637
232.500 7.916395
233.500 8.047028
234.500 7.929458
235.500 7.851078
236.500 7.726976
237.500 7.642064
238.500 7.452645
239.500 7.439582
240.500 7.341607
241.500 7.250163
242.500 7.178315
243.500 7.080340
244.500 6.995428
245.500 6.910516
246.500 6.819073
247.500 6.734161
248.500 6.655781
249.500 6.457871
250.500 6.495754
251.300 6.276943
251.800 6.384716
252.500 6.324624
253.500 6.243632
254.500 6.165251
255.500 6.111692
256.500 6.034618
257.500 5.973873
258.500 5.902678
259.500 5.829523
260.500 5.757022
261.500 5.686479
262.500 5.628347
263.500 5.565643
264.500 5.533638
265.500 5.468321
266.500 5.392554
267.500 5.335728
268.500 5.293272
269.500 5.205748
270.500 5.168517
271.500 5.102547
272.500 5.022861
273.500 4.948400
274.500 4.910516
275.500 4.862182
276.500 4.798171
277.500 4.779882
278.500 4.721097
279.500 4.616590
280.500 4.588504
281.500 4.578054
282.500 4.509471
283.500 4.465709
284.500 4.428478
285.500 4.376878
286.500 4.338994
287.500 4.291966
288.500 4.249510
289.500 4.204442
291.000 4.146310
293.000 4.056826
295.000 3.956891
297.000 3.894840
299.000 3.817113
301.000 3.726323
303.000 3.636839
305.000 3.549967
307.000 3.465709
309.000 3.386022
311.000 3.305683
313.000 3.227956
315.000 3.157413
317.000 3.087524
319.000 2.996734
321.000 2.937296
323.000 2.881123
325.000 2.822338
327.000 2.765513
329.000 2.706074
331.000 2.653168
332.200 2.613325
332.300 2.631613
332.400 2.617244
332.500 2.612671
332.600 2.594383
332.700 2.576747
332.800 2.567603
332.900 2.569562
333.000 2.574135
333.100 2.570216
333.200 2.557152
333.300 2.533638
333.400 2.519922
333.500 2.512737
333.600 2.504246
333.700 2.489223
333.800 2.466362
333.900 2.461137
334.000 2.448726
334.100 2.469628
334.200 2.484651
334.300 2.532332
334.400 2.566297
334.500 2.587851
334.600 2.612018
334.700 2.615937
334.800 2.578054
334.900 2.506205
335.000 2.399086
335.100 2.403658
335.200 2.440235
335.300 2.459177
335.400 2.453952
335.500 2.430438
335.600 2.426519
335.700 2.430438
335.800 2.433703
335.900 2.432397
336.000 2.444154
336.100 2.442195
336.200 2.452645
336.300 2.442848
336.400 2.436969
336.500 2.412149
336.600 2.389941
336.700 2.372306
336.800 2.360549
336.900 2.366427
337.000 2.396473
337.100 2.398432
337.200 2.372959
337.300 2.371653
337.400 2.384063
337.500 2.423253
337.600 2.436316
337.700 2.398432
337.800 2.380797
337.900 2.374265
338.000 2.400392
338.100 2.429784
338.200 2.448073
338.300 2.448073
338.400 2.436969
338.500 2.443501
338.600 2.454605
338.700 2.459830
338.800 2.457871
338.900 2.440235
339.000 2.436969
339.100 2.438276
339.200 2.448726
339.300 2.456564
339.400 2.483997
339.500 2.488570
339.600 2.475506
339.700 2.444154
339.800 2.418681
339.900 2.367080
340.000 2.342260
340.100 2.359242
340.200 2.339647
340.300 2.326584
340.400 2.329850
340.500 2.337035
340.600 2.327237
340.700 2.331809
340.800 2.344219
340.900 2.356630
341.000 2.361855
341.100 2.323971
341.200 2.326584
341.300 2.348792
341.400 2.377531
341.500 2.393860
341.600 2.396473
341.700 2.396473
341.800 2.399086
341.900 2.406924
342.000 2.405617
342.100 2.405617
342.200 2.397126
342.300 2.393860
342.400 2.388635
342.500 2.384063
342.600 2.394513
342.700 2.401698
342.800 2.412802
342.900 2.412149
343.000 2.387982
343.100 2.387329
343.200 2.385369
343.300 2.393860
343.400 2.397779
343.500 2.402351
343.600 2.406924
343.700 2.402351
343.800 2.399086
343.900 2.382756
344.000 2.343566
344.100 2.322665
344.200 2.317440
344.300 2.338994
344.400 2.355323
344.500 2.340954
344.600 2.337035
344.700 2.337035
344.800 2.358589
344.900 2.375572
345.000 2.318746
345.100 2.273677
345.200 2.254735
345.300 2.254082
345.400 2.266492
345.500 2.269758
345.600 2.271065
345.700 2.269105
345.800 2.263227
345.900 2.259308
346.000 2.252123
346.100 2.249510
346.200 2.261920
346.300 2.322012
346.400 2.294579
346.500 2.294579
346.600 2.303070
346.700 2.299804
346.800 2.292619
346.900 2.290007
347.000 2.298498
347.100 2.274331
347.200 2.269758
347.300 2.288700
347.400 2.290660
347.500 2.278903
347.600 2.259308
347.700 2.211626
347.800 2.171783
347.900 2.157413
348.000 2.181581
348.100 2.215545
348.200 2.201829
348.300 2.172436
348.400 2.173089
348.500 2.218158
348.600 2.250163
348.700 2.269758
348.800 2.299804
348.900 2.301110
349.000 2.282169
349.100 2.274984
349.200 2.294579
349.300 2.297845
349.400 2.289353
349.500 2.274984
349.600 2.254735
349.700 2.258001
349.800 2.271065
349.900 2.270411
350.000 2.239713
350.100 2.207054
350.200 2.213586
350.300 2.225343
350.400 2.207707
350.500 2.179621
350.600 2.167211
350.700 2.174396
350.800 2.194644
350.900 2.197910
351.000 2.197910
351.100 2.197910
351.200 2.191378
351.300 2.178968
351.400 2.182887
351.500 2.192031
351.600 2.205748
351.700 2.199216
351.800 2.197910
351.900 2.201829
352.000 2.201829
352.100 2.193991
352.200 2.184193
352.300 2.185500
352.400 2.202482
352.500 2.189419
352.600 2.184193
352.700 2.180927
352.800 2.188112
352.900 2.203788
353.000 2.214892
353.100 2.224690
353.200 2.237753
353.300 2.225343
353.400 2.199216
353.500 2.192685
353.600 2.195950
353.700 2.180274
353.800 2.178968
353.900 2.180274
354.000 2.195950
354.100 2.205748
354.200 2.204442
354.300 2.198563
354.400 2.203135
354.500 2.209014
354.600 2.205748
354.700 2.214892
354.800 2.224037
354.900 2.219464
355.000 2.207707
355.100 2.203135
355.200 2.212280
355.300 2.221424
355.400 2.214892
355.500 2.203135
355.600 2.191378
355.700 2.194644
355.800 2.198563
355.900 2.193991
356.000 2.187459
356.100 2.195950
356.200 2.204442
356.300 2.196604
356.400 2.183540
356.500 2.184193
356.600 2.186806
356.700 2.169170
356.800 2.175702
356.900 2.168517
357.000 2.140431
357.100 2.085565
357.200 2.070542
357.300 2.072502
357.400 2.070542
357.500 2.075114
357.600 2.089484
357.700 2.089484
357.800 2.084259
357.900 2.078380
358.000 2.084259
358.100 2.091444
358.200 2.084259
358.300 2.079033
358.400 2.082299
358.500 2.074461
358.600 2.062704
358.700 2.055519
358.800 2.045722
358.900 2.047028
359.000 2.063357
359.100 2.068583
359.200 2.064010
359.300 2.067929
359.400 2.071848
359.500 2.071848
359.600 2.067276
359.700 2.071848
359.800 2.080993
359.900 2.090137
360.000 2.105160
360.100 2.102547
360.200 2.103201
360.300 2.088831
360.400 2.076421
360.500 2.073808
360.600 2.075114
360.700 2.078380
360.800 2.088831
360.900 2.097975
361.000 2.096669
361.100 2.074461
361.200 2.071848
361.300 2.067276
361.400 2.054866
361.500 2.052253
361.600 2.066623
361.700 2.079686
361.800 2.090790
361.900 2.096016
362.000 2.077074
362.100 2.075767
362.200 2.099935
362.300 2.103854
362.400 2.094056
362.500 2.092750
362.600 2.104507
362.700 2.116917
362.800 2.110385
362.900 2.095363
363.000 2.094709
363.100 2.093403
363.200 2.085565
363.300 2.084259
363.400 2.107773
363.500 2.105160
363.600 2.059438
363.700 2.039843
363.800 2.043109
363.900 2.046375
364.000 2.050947
364.100 2.059438
364.200 2.064010
364.300 2.050947
364.400 2.028739
364.500 2.024820
364.600 2.021555
364.700 2.026780
364.800 2.033312
364.900 2.033965
365.000 2.032005
365.100 2.024820
365.200 2.022208
365.300 2.019595
365.400 2.018289
365.500 2.026127
365.600 2.034618
365.700 2.029393
365.800 2.023514
365.900 2.016982
366.000 2.005225
366.100 2.005879
366.200 2.005225
366.300 2.013717
366.400 2.016982
366.500 2.009798
366.600 2.007185
366.700 2.000653
366.800 1.998694
366.900 2.005225
367.000 2.009798
367.100 2.005879
367.200 2.001960
367.300 1.994121
367.400 1.988896
367.500 1.981058
367.600 1.987590
367.700 1.981058
367.800 1.973220
367.900 1.971914
368.000 1.975833
368.100 1.986283
368.200 1.988243
368.300 1.983018
368.400 1.977139
368.500 1.969954
368.600 1.958850
368.700 1.954931
368.800 1.975833
368.900 2.007838
369.000 2.005225
369.100 1.977139
369.200 1.980405
369.300 2.003266
369.400 2.020248
369.500 2.011757
369.600 1.976486
369.700 1.953625
369.800 1.952319
369.900 1.999347
370.000 2.056826
370.100 2.061398
370.200 2.010451
370.300 1.923579
370.400 1.873939
370.500 1.866101
370.600 1.920314
370.700 1.977139
370.800 2.022861
370.900 2.003266
371.000 1.945787
371.100 1.878511
371.200 1.839321
371.300 1.857609
371.400 1.927498
371.500 2.033965
371.600 2.088831
371.700 2.111692
371.800 2.105160
371.900 2.033312
372.000 1.905944
372.100 1.828870
372.200 1.785108
372.300 1.818419
372.400 1.900718
372.500 2.004572
372.600 2.046375
372.700 2.093403
372.800 2.115611
372.900 2.126061
373.000 2.114958
373.100 2.054866
373.200 1.944481
373.300 1.836708
373.400 1.743958
373.500 1.723057
373.600 1.777270
373.700 1.894840
373.800 1.989549
373.900 2.097322
374.000 2.156107
374.100 2.188766
374.200 2.186806
374.300 2.165251
374.400 2.144350
374.500 2.111692
374.600 2.047028
374.700 1.951012
374.800 1.845199
374.900 1.715219
375.000 1.673416
375.100 1.707381
375.200 1.808622
375.300 1.905291
375.400 2.009144
375.500 2.067276
375.600 2.115611
375.700 2.115611
375.800 2.090137
375.900 2.063357
376.000 2.048334
376.100 2.047028
376.200 2.096016
376.300 2.118223
376.400 2.106466
376.500 2.070542
376.600 2.016982
376.700 1.952319
376.800 1.849118
376.900 1.730895
377.000 1.637492
377.100 1.606140
377.200 1.685173
377.300 1.810581
377.400 1.913782
377.500 1.992815
377.600 2.048334
377.700 2.089484
377.800 2.129980
377.900 2.150229
378.000 2.170477
378.100 2.184847
378.200 2.195950
378.300 2.184193
378.400 2.175702
378.500 2.182887
378.600 2.178315
378.700 2.161986
378.800 2.146310
378.900 2.131940
379.000 2.114304
379.100 2.090137
379.200 2.060091
379.300 2.018942
379.400 1.952972
379.500 1.841280
379.600 1.716525
379.700 1.591770
379.800 1.532332
379.900 1.580013
380.000 1.720444
380.100 1.854344
380.200 1.962769
380.300 2.025474
380.400 2.069889
380.500 2.107773
380.600 2.111692
380.700 2.122142
380.800 2.139778
380.900 2.161332
381.000 2.184193
381.100 2.195297
381.200 2.176355
381.300 2.146963
381.400 2.124755
381.500 2.116264
381.600 2.116264
381.700 2.120836
381.800 2.109079
381.900 2.085565
382.000 2.062051
382.100 2.056826
382.200 2.091444
382.300 2.111039
382.400 2.101241
382.500 2.077074
382.600 2.048334
382.700 2.043762
382.800 2.030699
382.900 1.996081
383.000 1.952972
383.100 1.892227
383.200 1.807969
383.300 1.684520
383.400 1.534944
383.500 1.461137
383.600 1.459830
383.700 1.556499
383.800 1.680601
383.900 1.806009
384.000 1.886349
384.100 1.956891
384.200 2.001960
384.300 2.050294
384.400 2.086871
384.500 2.115611
384.600 2.118877
384.700 2.122142
384.800 2.119530
384.900 2.119530
385.000 2.116917
385.100 2.131287
385.200 2.145003
385.300 2.143044
385.400 2.129327
385.500 2.113651
385.600 2.096669
385.700 2.093403
385.800 2.105813
385.900 2.124102
386.000 2.132593
386.100 2.135206
386.200 2.117570
386.300 2.082952
386.400 2.077727
386.500 2.078380
386.600 2.080340
386.700 2.095363
386.800 2.110385
386.900 2.112345
387.000 2.103201
387.100 2.084259
387.200 2.060091
387.300 2.050947
387.400 2.061398
387.500 2.077727
387.600 2.078380
387.700 2.063357
387.800 2.047681
387.900 2.039190
388.000 2.041803
388.100 2.023514
388.200 1.988896
388.300 1.951666
388.400 1.911169
388.500 1.836708
388.600 1.726323
388.700 1.572828
388.800 1.439582
388.900 1.382756
389.000 1.441541
389.100 1.587851
389.200 1.745918
389.300 1.851731
389.400 1.920314
389.500 1.957544
389.600 1.988243
389.700 2.020248
389.800 2.035924
389.900 2.035271
390.000 2.035924
390.100 2.055519
390.200 2.079686
390.300 2.094056
390.400 2.095363
390.500 2.086218
390.600 2.071195
390.700 2.077074
390.800 2.106466
390.900 2.129980
391.000 2.129980
391.100 2.132593
391.200 2.127368
391.300 2.105813
391.400 2.090137
391.500 2.094056
391.600 2.103854
391.700 2.107120
391.800 2.098628
391.900 2.079033
392.000 2.071848
392.100 2.070542
392.200 2.060091
392.300 2.038537
392.400 2.033965
392.500 2.047681
392.600 2.045069
392.700 2.044415
392.800 2.028739
392.900 2.008491
393.000 1.984324
393.100 1.929458
393.200 1.787720
393.300 1.599608
393.400 1.596995
393.500 1.743305
393.600 1.868060
393.700 1.938602
393.800 1.983018
393.900 2.013717
394.000 2.044415
394.100 2.065317
394.200 2.069236
394.300 2.053560
394.400 2.039843
394.500 2.021555
394.600 2.018289
394.700 2.030046
394.800 2.034618
394.900 2.028739
395.000 2.020901
395.100 2.011757
395.200 2.005225
395.300 2.007838
395.400 2.012410
395.500 2.006532
395.600 1.989549
395.700 1.973873
395.800 1.968648
395.900 1.971261
396.000 1.963423
396.100 1.943828
396.200 1.907903
396.300 1.866101
396.400 1.813847
396.500 1.747877
396.600 1.642064
396.700 1.436969
396.800 1.216852
396.900 1.112345
397.000 1.127368
397.100 1.242325
397.200 1.410843
397.300 1.561071
397.400 1.679948
397.500 1.766819
397.600 1.828870
397.700 1.868713
397.800 1.883083
397.900 1.913782
398.000 1.930764
398.100 1.944481
398.200 1.945787
398.300 1.942521
398.400 1.953625
398.500 1.967995
398.600 1.956238
398.700 1.925539
398.800 1.969954
398.900 1.984324
399.000 1.992815
399.100 1.998694
399.200 2.001306
399.300 2.005225
399.400 2.000653
399.500 1.999347
399.600 1.983671
399.700 1.975180
399.800 1.975180
399.900 1.980405
400.000 1.970607
400.100 1.962769
400.200 1.962116
400.300 1.960157
400.400 1.963423
400.500 1.963423
400.600 1.964076
400.700 1.966688
400.800 1.971914
400.900 1.968648
401.000 1.963423
401.100 1.968648
401.200 1.973220
401.300 1.975833
401.400 1.979752
401.500 1.982364
401.600 1.989549
401.700 2.001306
401.800 2.011104
401.900 2.017636
402.000 2.014370
402.100 2.001306
402.200 1.987590
402.300 1.954278
402.400 1.905944
402.500 1.864141
402.600 1.859569
402.700 1.892880
402.800 1.935336
402.900 1.960810
403.000 1.977792
403.100 1.977139
403.200 1.976486
403.300 1.975180
403.400 1.977792
403.500 1.986283
403.600 1.994775
403.700 2.000000
403.800 2.003919
403.900 2.000653
404.000 2.003919
404.100 2.010451
404.200 2.002613
404.300 1.993468
404.400 1.982364
404.500 1.966035
404.600 1.955585
404.700 1.966688
404.800 1.981711
404.900 1.990856
405.000 1.990202
405.100 1.989549
405.200 1.992162
405.300 1.983018
405.400 1.980405
405.500 1.988243
405.600 1.989549
405.700 1.992162
405.800 1.997387
405.900 2.001960
406.000 1.998694
406.100 1.978445
406.200 1.967342
406.300 1.958197
406.400 1.920967
406.500 1.850425
406.600 1.871979
406.700 1.900718
406.800 1.903331
406.900 1.899412
407.000 1.890268
407.100 1.881123
407.200 1.878511
407.300 1.874592
407.400 1.883736
407.500 1.883083
407.600 1.866101
407.700 1.850425
407.800 1.847812
407.900 1.868060
408.000 1.889615
408.100 1.900065
408.200 1.898759
408.300 1.892880
408.400 1.877204
408.500 1.868713
408.600 1.863488
408.700 1.875245
408.800 1.884389
408.900 1.885696
409.000 1.872632
409.100 1.859569
409.200 1.849118
409.300 1.825604
409.400 1.800131
409.500 1.759634
409.600 1.716525
409.700 1.668844
409.800 1.585892
409.900 1.483344
410.000 1.355323
410.100 1.235794
410.200 1.200523
410.300 1.274984
410.400 1.426519
410.500 1.572828
410.600 1.660353
410.700 1.707381
410.800 1.741999
410.900 1.757675
411.000 1.772698
411.100 1.788374
411.200 1.807969
411.300 1.825604
411.400 1.847159
411.500 1.865447
411.600 1.875898
411.700 1.867407
411.800 1.847812
411.900 1.834095
412.000 1.830176
412.100 1.830830
412.200 1.828870
412.300 1.833442
412.400 1.845199
412.500 1.858916
412.600 1.854997
412.700 1.835402
412.800 1.812541
412.900 1.804703
413.000 1.808622
413.100 1.817766
413.200 1.822992
413.300 1.830176
413.400 1.844546
413.500 1.856303
413.600 1.861528
413.700 1.865447
413.800 1.873939
413.900 1.878511
414.000 1.879817
414.100 1.875245
414.200 1.856303
414.300 1.833442
