# Wavelength (nm)   F_lamA (normalized erg/cm2/s/A)9.100 0.000068
9.400 0.000096
9.600 0.000119
9.800 0.000147
10.000 0.000179
10.200 0.000217
10.400 0.000259
10.600 0.000308
10.800 0.000363
11.000 0.000425
11.400 0.000571
11.800 0.000749
12.100 0.000904
12.500 0.001142
12.700 0.001275
12.800 0.001344
13.100 0.001569
13.200 0.001648
13.400 0.001814
13.700 0.002081
14.000 0.002368
14.300 0.002677
14.700 0.003121
15.100 0.003598
15.500 0.004109
15.900 0.004651
16.200 0.005075
16.600 0.005662
17.000 0.006274
17.300 0.006745
17.700 0.007389
18.000 0.007881
18.200 0.008213
18.600 0.008885
19.100 0.009736
19.400 0.010246
19.800 0.010935
20.200 0.011624
20.500 0.012136
21.000 0.012982
21.600 0.013996
22.000 0.014646
22.300 0.015138
22.700 0.015768
23.000 0.111220
23.400 0.109547
24.000 0.107480
24.600 0.106004
25.200 0.104331
25.700 0.099902
26.000 0.100886
26.400 0.100295
26.900 0.098140
27.400 0.096043
27.900 0.093396
28.400 0.091722
29.000 0.089085
29.600 0.085738
30.100 0.080650
30.800 0.079045
31.800 0.077303
32.800 0.073701
33.800 0.070020
34.800 0.066565
35.700 0.063898
36.600 0.061378
37.500 0.058701
38.500 0.055492
39.500 0.053297
40.500 0.050994
41.400 0.048878
42.200 0.046959
43.000 0.045207
44.100 0.043159
45.100 0.041250
46.000 0.039488
47.000 0.037756
48.000 0.036201
49.000 0.034528
50.000 0.033199
50.600 0.032835
51.200 0.033465
52.000 0.032333
53.000 0.031043
54.000 0.029498
55.000 0.028376
56.000 0.027667
57.000 0.026663
58.000 0.025561
59.000 0.024724
60.000 0.023730
61.000 0.022766
62.000 0.022175
63.000 0.021368
64.000 0.020689
65.000 0.019941
65.800 0.019311
66.500 0.018967
67.500 0.018376
68.500 0.017638
69.500 0.017205
70.500 0.016506
71.600 0.016102
72.600 0.015620
73.500 0.015197
74.500 0.014705
75.500 0.014252
76.500 0.013770
77.500 0.013425
78.500 0.013022
79.500 0.012657
80.500 0.012323
81.500 0.011998
82.500 0.011683
83.500 0.011220
84.500 0.011053
85.500 0.010738
86.500 0.010492
87.500 0.010226
88.500 0.009961
89.500 0.009706
90.500 0.009427
91.500 0.011191
92.500 0.015659
93.500 0.019892
94.500 0.025906
95.500 0.027746
96.500 0.030699
97.500 0.020945
98.500 0.030344
99.500 0.029035
100.500 0.029961
101.500 0.028376
102.500 0.019833
103.500 0.026329
104.500 0.028711
105.500 0.028376
106.500 0.027520
107.500 0.028780
108.500 0.028081
109.500 0.029272
110.500 0.033199
111.500 0.033533
112.500 0.031526
113.500 0.031388
114.500 0.027982
115.500 0.025502
116.500 0.023789
117.500 0.020955
118.500 0.021762
119.500 0.020541
120.500 0.018907
121.500 0.013258
122.500 0.018504
123.500 0.019528
124.500 0.019606
125.500 0.019734
126.500 0.020157
127.500 0.022382
128.500 0.027028
129.500 0.032539
130.500 0.039892
131.500 0.050561
132.500 0.061939
133.500 0.071781
134.500 0.085709
135.500 0.091122
136.500 0.103740
137.500 0.115059
138.500 0.124409
139.500 0.134843
140.500 0.138976
141.500 0.154724
142.500 0.156299
143.500 0.156594
144.200 0.175689
144.700 0.169488
145.500 0.188484
146.500 0.177067
147.500 0.189370
148.500 0.194882
149.500 0.200787
150.500 0.213878
151.200 0.215453
151.700 0.208563
152.500 0.217618
153.500 0.222933
154.500 0.227756
155.500 0.236319
156.500 0.222933
157.500 0.250295
158.500 0.263780
159.500 0.277362
160.500 0.254429
161.500 0.276673
162.500 0.267913
163.500 0.281693
164.500 0.313386
165.500 0.272146
166.500 0.336024
167.200 0.306890
167.700 0.332874
168.500 0.352165
169.500 0.339961
170.500 0.344783
171.500 0.363583
172.500 0.360925
173.500 0.376673
174.500 0.370079
175.500 0.384941
176.500 0.358268
177.500 0.380610
178.500 0.381102
179.500 0.397539
180.500 0.414173
181.500 0.413386
182.500 0.401870
183.500 0.409843
184.500 0.386417
185.500 0.402461
186.500 0.412795
187.500 0.413878
188.500 0.415748
189.500 0.421654
190.500 0.413583
191.500 0.422835
192.500 0.429232
193.500 0.412008
194.500 0.436909
195.500 0.437697
196.700 0.447047
197.600 0.436516
198.400 0.435827
199.500 0.436220
200.500 0.424803
201.500 0.426772
202.500 0.413878
203.500 0.438976
204.500 0.448327
205.500 0.439567
206.500 0.438878
207.400 0.458858
207.800 0.460433
208.500 0.458366
209.500 0.450591
210.500 0.446457
211.500 0.454035
212.500 0.453642
213.500 0.434744
214.500 0.457480
215.500 0.453346
216.500 0.438189
217.500 0.440453
218.500 0.451181
219.500 0.472539
220.500 0.459941
221.500 0.439665
222.500 0.449409
223.500 0.481398
224.500 0.463287
225.500 0.445965
226.500 0.436122
227.500 0.460138
228.500 0.469488
229.500 0.451476
230.500 0.467126
231.500 0.466339
232.500 0.428445
233.500 0.455413
234.500 0.418012
235.500 0.469882
236.500 0.430610
237.500 0.456988
238.500 0.405610
239.500 0.441043
240.500 0.435335
241.500 0.440748
242.500 0.477067
243.500 0.465846
244.500 0.481594
245.500 0.479528
246.500 0.476378
247.500 0.459449
248.500 0.455217
249.500 0.451476
250.500 0.495374
251.300 0.456791
251.800 0.436024
252.500 0.424213
253.500 0.436122
254.500 0.440945
255.500 0.476181
256.500 0.473327
257.500 0.498228
258.500 0.499409
259.500 0.493701
260.500 0.479232
261.500 0.466339
262.500 0.496063
263.500 0.512992
264.500 0.563780
265.500 0.573524
266.500 0.543110
267.500 0.562205
268.500 0.574213
269.500 0.545472
270.500 0.554823
271.500 0.525689
272.500 0.529134
273.500 0.549016
274.500 0.488681
275.500 0.511417
276.500 0.545079
277.500 0.565354
278.500 0.544488
279.500 0.387303
280.500 0.433366
281.500 0.585925
282.500 0.592323
283.500 0.583465
284.500 0.568799
285.500 0.520965
286.500 0.579823
287.500 0.583071
288.500 0.591634
289.500 0.596260
291.000 0.625197
293.000 0.616043
295.000 0.610335
297.000 0.615354
299.000 0.622343
301.000 0.626575
303.000 0.630413
305.000 0.637795
307.000 0.634350
309.000 0.635138
311.000 0.635827
313.000 0.635433
315.000 0.636417
317.000 0.645571
319.000 0.625689
321.000 0.641929
323.000 0.629429
325.000 0.653839
327.000 0.673917
329.000 0.675787
331.000 0.677854
332.200 0.568406
332.300 0.536417
332.400 0.526772
332.500 0.538386
332.600 0.541535
332.700 0.536319
332.800 0.545374
332.900 0.555610
333.000 0.574606
333.100 0.586417
333.200 0.578839
333.300 0.575197
333.400 0.558661
333.500 0.553642
333.600 0.550000
333.700 0.548622
333.800 0.560728
333.900 0.564469
334.000 0.566732
334.100 0.570079
334.200 0.562598
334.300 0.570965
334.400 0.584744
334.500 0.586811
334.600 0.585433
334.700 0.558760
334.800 0.528839
334.900 0.512008
335.000 0.523524
335.100 0.534744
335.200 0.532283
335.300 0.537303
335.400 0.552362
335.500 0.577165
335.600 0.577559
335.700 0.556102
335.800 0.513484
335.900 0.472736
336.000 0.445177
336.100 0.457776
336.200 0.487500
336.300 0.526575
336.400 0.550787
336.500 0.543209
336.600 0.535138
336.700 0.532776
336.800 0.529035
336.900 0.525098
337.000 0.497736
337.100 0.472736
337.200 0.461811
337.300 0.478445
337.400 0.508366
337.500 0.544193
337.600 0.557972
337.700 0.555512
337.800 0.538878
337.900 0.528642
338.000 0.534449
338.100 0.543602
338.200 0.545177
338.300 0.543209
338.400 0.546161
338.500 0.559449
338.600 0.557185
338.700 0.537500
338.800 0.519390
338.900 0.533169
339.000 0.557283
339.100 0.576673
339.200 0.571161
339.300 0.553642
339.400 0.553150
339.500 0.563976
339.600 0.579232
339.700 0.590157
339.800 0.600000
339.900 0.600886
340.000 0.596358
340.100 0.585827
340.200 0.565453
340.300 0.555118
340.400 0.543799
340.500 0.553248
340.600 0.560335
340.700 0.559744
340.800 0.549606
340.900 0.543996
341.000 0.558465
341.100 0.557185
341.200 0.551083
341.300 0.539469
341.400 0.535433
341.500 0.555610
341.600 0.571358
341.700 0.578248
341.800 0.585236
341.900 0.588583
342.000 0.593898
342.100 0.594291
342.200 0.573425
342.300 0.549606
342.400 0.544685
342.500 0.554035
342.600 0.562500
342.700 0.577165
342.800 0.597539
342.900 0.615157
343.000 0.624606
343.100 0.603642
343.200 0.581791
343.300 0.567717
343.400 0.580118
343.500 0.603445
343.600 0.608268
343.700 0.596850
343.800 0.579724
343.900 0.566240
344.000 0.557972
344.100 0.541240
344.200 0.529823
344.300 0.526181
344.400 0.533563
344.500 0.548917
344.600 0.571457
344.700 0.598720
344.800 0.614665
344.900 0.624902
345.000 0.607677
345.100 0.581004
345.200 0.561909
345.300 0.558465
345.400 0.569882
345.500 0.580709
345.600 0.581398
345.700 0.581398
345.800 0.575886
345.900 0.569193
346.000 0.555217
346.100 0.550000
346.200 0.563287
346.300 0.569980
346.400 0.576378
346.500 0.564961
346.600 0.564764
346.700 0.580413
346.800 0.599016
346.900 0.612205
347.000 0.618012
347.100 0.613780
347.200 0.605610
347.300 0.578248
347.400 0.554232
347.500 0.547047
347.600 0.551378
347.700 0.578543
347.800 0.597835
347.900 0.607776
348.000 0.618701
348.100 0.617815
348.200 0.610630
348.300 0.604724
348.400 0.600984
348.500 0.607776
348.600 0.618799
348.700 0.616831
348.800 0.607185
348.900 0.591831
349.000 0.580512
349.100 0.589272
349.200 0.606004
349.300 0.607480
349.400 0.601378
349.500 0.591535
349.600 0.579921
349.700 0.585630
349.800 0.582874
349.900 0.581693
350.000 0.576476
350.100 0.570669
350.200 0.581594
350.300 0.589665
350.400 0.592815
350.500 0.585630
350.600 0.574311
350.700 0.566634
350.800 0.559350
350.900 0.568898
351.000 0.576476
351.100 0.579035
351.200 0.570669
351.300 0.559252
351.400 0.560335
351.500 0.572441
351.600 0.601083
351.700 0.621457
351.800 0.626378
351.900 0.606496
352.000 0.589370
352.100 0.582874
352.200 0.577362
352.300 0.568602
352.400 0.553839
352.500 0.545374
352.600 0.554921
352.700 0.568898
352.800 0.584154
352.900 0.596457
353.000 0.607480
353.100 0.618701
353.200 0.610335
353.300 0.576772
353.400 0.556693
353.500 0.549902
353.600 0.578740
353.700 0.614862
353.800 0.629528
353.900 0.638780
354.000 0.633563
354.100 0.627264
354.200 0.625197
354.300 0.637598
354.400 0.646949
354.500 0.640650
354.600 0.633563
354.700 0.625394
354.800 0.620866
354.900 0.622343
355.000 0.632283
355.100 0.645571
355.200 0.642913
355.300 0.622638
355.400 0.606102
355.500 0.607776
355.600 0.618701
355.700 0.635925
355.800 0.648327
355.900 0.652756
356.000 0.650984
356.100 0.647835
356.200 0.639961
356.300 0.625394
356.400 0.604626
356.500 0.586713
356.600 0.580315
356.700 0.585433
356.800 0.588681
356.900 0.587894
357.000 0.577165
357.100 0.563091
357.200 0.558760
357.300 0.559055
357.400 0.565650
357.500 0.578248
357.600 0.590945
357.700 0.597441
357.800 0.601969
357.900 0.598425
358.000 0.585433
358.100 0.570177
358.200 0.559154
358.300 0.560433
358.400 0.558465
358.500 0.547441
358.600 0.531496
358.700 0.523031
358.800 0.534252
358.900 0.561811
359.000 0.585630
359.100 0.596850
359.200 0.593406
359.300 0.588091
359.400 0.592224
359.500 0.606890
359.600 0.620768
359.700 0.627067
359.800 0.625591
359.900 0.624016
360.000 0.622047
360.100 0.606496
360.200 0.596161
360.300 0.592913
360.400 0.603051
360.500 0.611516
360.600 0.608169
360.700 0.600689
360.800 0.591929
360.900 0.591142
361.000 0.590945
361.100 0.593406
361.200 0.600492
361.300 0.607185
361.400 0.617913
361.500 0.641240
361.600 0.641142
361.700 0.627756
361.800 0.608268
361.900 0.592520
362.000 0.602165
362.100 0.615846
362.200 0.625886
362.300 0.630610
362.400 0.636614
362.500 0.653937
362.600 0.676280
362.700 0.694390
362.800 0.685925
362.900 0.661122
363.000 0.621457
363.100 0.601575
363.200 0.609843
363.300 0.632185
363.400 0.643898
363.500 0.636909
363.600 0.633465
363.700 0.644488
363.800 0.657382
363.900 0.664567
364.000 0.666831
364.100 0.661516
364.200 0.649803
364.300 0.639961
364.400 0.634350
364.500 0.631890
364.600 0.628150
364.700 0.626083
364.800 0.626181
364.900 0.624016
365.000 0.622736
365.100 0.624606
365.200 0.638681
365.300 0.652461
365.400 0.666240
365.500 0.680315
365.600 0.689764
365.700 0.693504
365.800 0.690846
365.900 0.686713
366.000 0.683760
366.100 0.673031
366.200 0.661909
366.300 0.656398
366.400 0.660827
366.500 0.669488
366.600 0.672638
366.700 0.671850
366.800 0.664862
366.900 0.655413
367.000 0.652461
367.100 0.656988
367.200 0.667224
367.300 0.674508
367.400 0.672441
367.500 0.666929
367.600 0.651969
367.700 0.634350
367.800 0.623031
367.900 0.626083
368.000 0.635236
368.100 0.639469
368.200 0.640157
368.300 0.638386
368.400 0.641339
368.500 0.635433
368.600 0.630315
368.700 0.630807
368.800 0.649016
368.900 0.672933
369.000 0.675886
369.100 0.671161
369.200 0.665256
369.300 0.670079
369.400 0.679921
369.500 0.684843
369.600 0.676969
369.700 0.657874
369.800 0.668307
369.900 0.694291
370.000 0.726575
370.100 0.727854
370.200 0.686811
370.300 0.635335
370.400 0.598031
370.500 0.596260
370.600 0.612992
370.700 0.645177
370.800 0.665945
370.900 0.664567
371.000 0.636220
371.100 0.608268
371.200 0.599311
371.300 0.625886
371.400 0.681102
371.500 0.725295
371.600 0.754035
371.700 0.763287
371.800 0.743996
371.900 0.687106
372.000 0.608661
372.100 0.546457
372.200 0.540256
372.300 0.578740
372.400 0.659744
372.500 0.712697
372.600 0.746850
372.700 0.761614
372.800 0.770079
372.900 0.772835
373.000 0.767126
373.100 0.734055
373.200 0.656693
373.300 0.575098
373.400 0.513287
373.500 0.501772
373.600 0.545768
373.700 0.614469
373.800 0.686122
373.900 0.758465
374.000 0.799409
374.100 0.819882
374.200 0.806594
374.300 0.788583
374.400 0.763091
374.500 0.735236
374.600 0.702657
374.700 0.662992
374.800 0.604331
374.900 0.553937
375.000 0.525591
375.100 0.553248
375.200 0.609449
375.300 0.700000
375.400 0.760039
375.500 0.799902
375.600 0.817618
375.700 0.809941
375.800 0.801378
375.900 0.797441
376.000 0.798031
376.100 0.816831
376.200 0.828642
376.300 0.823819
376.400 0.812598
376.500 0.786417
376.600 0.760728
376.700 0.722539
376.800 0.659055
376.900 0.602461
377.000 0.546654
377.100 0.553346
377.200 0.602657
377.300 0.675886
377.400 0.730020
377.500 0.774114
377.600 0.795079
377.700 0.825591
377.800 0.862992
377.900 0.897244
378.000 0.936319
378.100 0.951476
378.200 0.953740
378.300 0.947047
378.400 0.940846
378.500 0.929823
378.600 0.921260
378.700 0.901870
378.800 0.885728
378.900 0.873524
379.000 0.863878
379.100 0.853346
379.200 0.825886
379.300 0.792028
379.400 0.739764
379.500 0.677067
379.600 0.610433
379.700 0.541535
379.800 0.517224
379.900 0.549114
380.000 0.631102
380.100 0.714961
380.200 0.788681
380.300 0.822736
380.400 0.856791
380.500 0.869488
380.600 0.882972
380.700 0.904626
380.800 0.928740
380.900 0.959154
381.000 0.979528
381.100 0.989173
381.200 0.970276
381.300 0.950394
381.400 0.935335
381.500 0.936220
381.600 0.949114
381.700 0.968602
381.800 0.974803
381.900 0.948130
382.000 0.925984
382.100 0.915453
382.200 0.923720
382.300 0.921457
382.400 0.891634
382.500 0.864272
382.600 0.839862
382.700 0.819783
382.800 0.790650
382.900 0.766634
383.000 0.743012
383.100 0.701083
383.200 0.657972
383.300 0.581201
383.400 0.521358
383.500 0.486024
383.600 0.493996
383.700 0.529724
383.800 0.593307
383.900 0.646063
384.000 0.700295
384.100 0.754921
384.200 0.803051
384.300 0.857972
384.400 0.891831
384.500 0.919094
384.600 0.943406
384.700 0.966634
384.800 0.982480
384.900 0.981988
385.000 0.982382
385.100 0.998031
385.200 1.025591
385.300 1.050197
385.400 1.053150
385.500 1.043307
385.600 1.028543
385.700 1.018701
385.800 1.006890
385.900 1.003937
386.000 1.017717
386.100 1.038386
386.200 1.049213
386.300 1.055118
386.400 1.052165
386.500 1.046260
386.600 1.047244
386.700 1.050197
386.800 1.052165
386.900 1.047244
387.000 1.030512
387.100 1.013780
387.200 0.988189
387.300 0.975295
387.400 0.968898
387.500 0.970472
387.600 0.964665
387.700 0.936713
387.800 0.911024
387.900 0.889567
388.000 0.890453
388.100 0.884744
388.200 0.857776
388.300 0.832677
388.400 0.789567
388.500 0.742323
388.600 0.677756
388.700 0.598622
388.800 0.542126
388.900 0.525689
389.000 0.561024
389.100 0.634744
389.200 0.702264
389.300 0.745571
389.400 0.781004
389.500 0.807382
389.600 0.847736
389.700 0.875689
389.800 0.899016
389.900 0.914272
390.000 0.926378
390.100 0.949705
390.200 0.959843
390.300 0.972047
390.400 0.969980
390.500 0.970768
390.600 0.985236
390.700 1.011811
390.800 1.048228
390.900 1.072835
391.000 1.086614
391.100 1.088583
391.200 1.087598
391.300 1.080709
391.400 1.068898
391.500 1.069882
391.600 1.078740
391.700 1.080709
391.800 1.074803
391.900 1.064961
392.000 1.063976
392.100 1.065945
392.200 1.068898
392.300 1.074803
392.400 1.074803
392.500 1.069882
392.600 1.046260
392.700 1.016732
392.800 0.977461
392.900 0.930512
393.000 0.875886
393.100 0.776181
393.200 0.656988
393.300 0.558760
393.400 0.538780
393.500 0.626772
393.600 0.753150
393.700 0.866929
393.800 0.956201
393.900 1.002953
394.000 1.027559
394.100 1.044291
394.200 1.049213
394.300 1.045276
394.400 1.046260
394.500 1.049213
394.600 1.058071
394.700 1.059055
394.800 1.049213
394.900 1.039370
395.000 1.035433
395.100 1.028543
395.200 1.018701
395.300 1.025591
395.400 1.022638
395.500 1.011811
395.600 0.997047
395.700 0.976476
395.800 0.970079
395.900 0.957382
396.000 0.926673
396.100 0.891437
396.200 0.845669
396.300 0.806988
396.400 0.761417
396.500 0.684055
396.600 0.587205
396.700 0.458563
396.800 0.369488
396.900 0.325591
397.000 0.368209
397.100 0.457382
397.200 0.567520
397.300 0.651870
397.400 0.729823
397.500 0.781693
397.600 0.834055
397.700 0.873622
397.800 0.908071
397.900 0.941732
398.000 0.955118
398.100 0.967224
398.200 0.980906
398.300 1.000000
398.400 1.019685
398.500 1.037402
398.600 1.052165
398.700 1.067913
398.800 1.089567
398.900 1.093504
399.000 1.094488
399.100 1.100394
399.200 1.106299
399.300 1.121063
399.400 1.127953
399.500 1.125984
399.600 1.111220
399.700 1.100394
399.800 1.101378
399.900 1.119094
400.000 1.131890
400.100 1.139764
400.200 1.141732
400.300 1.136811
400.400 1.125984
400.500 1.115157
400.600 1.119094
400.700 1.131890
400.800 1.152559
400.900 1.164370
401.000 1.169291
401.100 1.168307
401.200 1.162402
401.300 1.159449
401.400 1.159449
401.500 1.166339
401.600 1.172244
401.700 1.177165
401.800 1.184055
401.900 1.187992
402.000 1.190945
402.100 1.188976
402.200 1.184055
402.300 1.179134
402.400 1.174213
402.500 1.177165
402.600 1.183071
402.700 1.193898
402.800 1.193898
402.900 1.187008
403.000 1.168307
403.100 1.156496
403.200 1.151575
403.300 1.154528
403.400 1.163386
403.500 1.178150
403.600 1.193898
403.700 1.212598
403.800 1.214567
403.900 1.206693
404.000 1.198819
404.100 1.192913
404.200 1.193898
404.300 1.185039
404.400 1.159449
404.500 1.135827
404.600 1.125984
404.700 1.146654
404.800 1.173228
404.900 1.191929
405.000 1.194882
405.100 1.193898
405.200 1.189961
405.300 1.183071
405.400 1.176181
405.500 1.172244
405.600 1.172244
405.700 1.173228
405.800 1.175197
405.900 1.187992
406.000 1.193898
406.100 1.188976
406.200 1.160433
406.300 1.134843
406.400 1.123031
406.500 1.119094
406.600 1.125000
406.700 1.129921
406.800 1.130906
406.900 1.127953
407.000 1.116142
407.100 1.094488
407.200 1.086614
407.300 1.093504
407.400 1.100394
407.500 1.100394
407.600 1.079724
407.700 1.061024
407.800 1.052165
407.900 1.062992
408.000 1.081693
408.100 1.091535
408.200 1.090551
408.300 1.080709
408.400 1.068898
408.500 1.055118
408.600 1.052165
408.700 1.050197
408.800 1.049213
408.900 1.044291
409.000 1.027559
409.100 1.015748
409.200 1.003937
409.300 0.982185
409.400 0.962402
409.500 0.928839
409.600 0.900984
409.700 0.864370
409.800 0.816142
409.900 0.758957
410.000 0.666634
410.100 0.607874
410.200 0.591339
410.300 0.651476
410.400 0.728543
410.500 0.805512
410.600 0.846260
410.700 0.885039
410.800 0.909744
410.900 0.933268
411.000 0.957283
411.100 0.973622
411.200 0.997047
411.300 1.013780
411.400 1.033465
411.500 1.052165
411.600 1.061024
411.700 1.062008
411.800 1.058071
411.900 1.057087
412.000 1.062992
412.100 1.073819
412.200 1.086614
412.300 1.094488
412.400 1.102362
412.500 1.108268
412.600 1.111220
412.700 1.113189
412.800 1.116142
412.900 1.120079
413.000 1.117126
413.100 1.108268
413.200 1.098425
413.300 1.100394
413.400 1.117126
413.500 1.130906
413.600 1.141732
413.700 1.150591
413.800 1.158465
413.900 1.169291
414.000 1.166339
414.100 1.154528
414.200 1.136811
414.300 1.122047
414.400 1.123031
414.500 1.130906
414.600 1.145669
414.700 1.148622
414.800 1.150591
414.900 1.153543
415.000 1.156496
415.100 1.158465
415.200 1.153543
415.300 1.146654
415.400 1.140748
415.500 1.139764
