# Wavelength (nm)   F_lamA (normalized erg/cm2/s/A)9.100 0.000841
9.400 0.000952
9.600 0.001028
9.800 0.001108
10.000 0.001190
10.200 0.001274
10.400 0.001361
10.600 0.001452
10.800 0.001545
11.000 0.001642
11.400 0.001848
11.800 0.002072
12.100 0.002256
12.500 0.002525
12.700 0.002672
12.800 0.002748
13.100 0.002994
13.200 0.003082
13.400 0.003267
13.700 0.003568
14.000 0.003904
14.300 0.004279
14.700 0.004849
15.100 0.005512
15.500 0.006280
15.900 0.007169
16.200 0.007925
16.600 0.009065
17.000 0.010371
17.300 0.011471
17.700 0.013107
18.000 0.014470
18.200 0.015458
18.600 0.017597
19.100 0.020607
19.400 0.022617
19.800 0.025544
20.200 0.028753
20.500 0.031351
21.000 0.036076
21.600 0.042389
22.000 0.047008
22.300 0.050688
22.700 0.055872
23.000 1.247208
23.400 1.392970
24.000 1.782062
24.600 2.398025
25.200 3.010462
25.700 2.399201
26.000 3.339603
26.400 4.208299
26.900 4.337604
27.400 4.424592
27.900 4.147173
28.400 4.556248
29.000 4.552721
29.600 4.117785
30.100 2.696603
30.800 3.325497
31.800 4.267074
32.800 4.278829
33.800 4.161279
34.800 4.056659
35.700 4.182438
36.600 4.362290
37.500 4.277654
38.500 3.963795
39.500 4.165981
40.500 4.231809
41.400 4.181262
42.200 4.054308
43.000 3.960268
44.100 4.027272
45.100 3.976725
46.000 3.839191
47.000 3.773363
48.000 3.768661
49.000 3.619372
50.000 3.655813
50.600 3.970848
51.200 4.987657
52.000 4.854825
53.000 4.726696
54.000 4.404608
55.000 4.342306
56.000 4.603268
57.000 4.562125
58.000 4.402257
59.000 4.399906
60.000 4.234160
61.000 4.115434
62.000 4.243564
63.000 4.140120
64.000 4.121312
65.000 4.022570
65.800 3.907370
66.500 3.943811
67.500 3.922652
68.500 3.746327
69.500 3.794522
70.500 3.607617
71.600 3.693429
72.600 3.646409
73.500 3.607617
74.500 3.525332
75.500 3.461855
76.500 3.360762
77.500 3.351358
78.500 3.296109
79.500 3.257318
80.500 3.220877
81.500 3.184436
82.500 3.150347
83.500 2.977548
84.500 3.051605
85.500 2.998707
86.500 2.979899
87.500 2.941107
88.500 2.897614
89.500 2.855296
90.500 2.794170
91.500 2.883508
92.500 5.479017
93.500 7.767721
94.500 11.194311
95.500 12.812978
96.500 14.858352
97.500 8.721053
98.500 15.551898
99.500 15.199248
100.500 15.857529
101.500 14.223581
102.500 8.367227
103.500 12.918773
104.500 15.528388
105.500 15.622429
106.500 14.729047
107.500 15.116963
108.500 14.047255
109.500 14.776067
110.500 14.247091
111.500 14.023745
112.500 13.294934
113.500 13.577054
114.500 12.989303
115.500 12.859998
116.500 12.671917
117.500 11.139062
118.500 11.730340
119.500 10.654755
120.500 9.291172
121.500 5.715293
122.500 8.937346
123.500 10.185729
124.500 10.463148
125.500 10.506642
126.500 10.222170
127.500 10.451393
128.500 10.405548
129.500 9.947102
130.500 9.769602
131.500 9.965910
132.500 9.712002
133.500 9.424004
134.500 9.508640
135.500 9.329964
136.500 9.076055
137.500 8.950276
138.500 8.870342
139.500 8.361349
140.500 8.202657
141.500 8.417774
142.500 8.246150
143.500 8.141531
144.200 8.112143
144.700 8.047490
145.500 7.924063
146.500 7.753615
147.500 7.638415
148.500 7.527918
149.500 7.397437
150.500 7.262255
151.200 7.124721
151.700 7.115317
152.500 6.980134
153.500 6.707417
154.500 6.589867
155.500 6.432350
156.500 6.401787
157.500 6.413542
158.500 6.374750
159.500 6.330081
160.500 6.103209
161.500 6.017397
162.500 5.893970
163.500 5.836370
164.500 5.689432
165.500 5.636535
166.500 5.689432
167.200 5.490772
167.700 5.585988
168.500 5.553074
169.500 5.428471
170.500 5.315622
171.500 5.211003
172.500 5.133420
173.500 5.149877
174.500 5.041730
175.500 5.020571
176.500 4.841895
177.500 4.866580
178.500 4.803103
179.500 4.773716
180.500 4.721994
181.500 4.627953
182.500 4.569178
183.500 4.504526
184.500 4.366992
185.500 4.295286
186.500 4.265899
187.500 4.264723
188.500 4.144822
189.500 4.056659
190.500 4.074292
191.500 3.979076
192.500 3.915599
193.500 3.896791
194.500 3.906195
195.500 3.790996
196.700 3.802751
197.600 3.779241
198.400 3.706359
199.500 3.619372
200.500 3.606442
201.500 3.562948
202.500 3.540614
203.500 3.486540
204.500 3.453626
205.500 3.186787
206.500 3.237334
207.400 3.366639
207.800 3.326672
208.500 3.317268
209.500 3.251440
210.500 3.236158
211.500 3.212648
212.500 3.186787
213.500 3.119784
214.500 3.100976
215.500 3.078641
216.500 3.009286
217.500 2.985776
218.500 2.952862
219.500 2.958740
220.500 2.902316
221.500 2.838839
222.500 2.807100
223.500 2.823557
224.500 2.771835
225.500 2.710709
226.500 2.691901
227.500 2.686023
228.500 2.670742
229.500 2.603738
230.500 2.589632
231.500 2.566122
232.500 2.395674
233.500 2.494416
234.500 2.422711
235.500 2.452098
236.500 2.382744
237.500 2.387446
238.500 2.299283
239.500 2.327495
240.500 2.293405
241.500 2.276948
242.500 2.287528
243.500 2.244034
244.500 2.242859
245.500 2.221700
246.500 2.188786
247.500 2.157047
248.500 2.148819
249.500 2.085341
250.500 2.132362
251.300 2.055954
251.800 2.071235
252.500 2.035970
253.500 2.014811
254.500 2.000705
255.500 2.017162
256.500 1.991301
257.500 1.997179
258.500 1.981897
259.500 1.957212
260.500 1.925473
261.500 1.900788
262.500 1.901963
263.500 1.897261
264.500 1.931351
265.500 1.919596
266.500 1.876102
267.500 1.876102
268.500 1.870225
269.500 1.829082
270.500 1.825555
271.500 1.789115
272.500 1.769131
273.500 1.770307
274.500 1.706830
275.500 1.705654
276.500 1.715058
277.500 1.726813
278.500 1.697426
279.500 1.572822
280.500 1.601034
281.500 1.683320
282.500 1.671565
283.500 1.649230
284.500 1.630422
285.500 1.597508
286.500 1.618667
287.500 1.605736
288.500 1.598683
289.500 1.586928
291.000 1.591630
293.000 1.557541
295.000 1.529329
297.000 1.516398
299.000 1.498766
301.000 1.482309
303.000 1.461150
305.000 1.442342
307.000 1.420007
309.000 1.401199
311.000 1.380040
313.000 1.358881
315.000 1.341248
317.000 1.328318
319.000 1.293053
321.000 1.288351
323.000 1.264841
325.000 1.262490
327.000 1.257788
329.000 1.242506
331.000 1.230751
332.200 1.181380
332.300 1.177854
332.400 1.170683
332.500 1.168332
332.600 1.160339
332.700 1.150582
332.800 1.157870
332.900 1.166099
333.000 1.176678
333.100 1.182556
333.200 1.177854
333.300 1.168567
333.400 1.154931
333.500 1.149524
333.600 1.140237
333.700 1.130128
333.800 1.131186
333.900 1.132126
334.000 1.130951
334.100 1.136358
334.200 1.136476
334.300 1.155754
334.400 1.173974
334.500 1.180205
334.600 1.181380
334.700 1.170565
334.800 1.145997
334.900 1.118256
335.000 1.096979
335.100 1.099800
335.200 1.110615
335.300 1.119549
335.400 1.124251
335.500 1.127777
335.600 1.128953
335.700 1.126837
335.800 1.113083
335.900 1.096391
336.000 1.083931
336.100 1.082520
336.200 1.097567
336.300 1.110380
336.400 1.117903
336.500 1.106383
336.600 1.094393
336.700 1.087457
336.800 1.083931
336.900 1.086870
337.000 1.086399
337.100 1.078759
337.200 1.063007
337.300 1.064300
337.400 1.078759
337.500 1.106265
337.600 1.122370
337.700 1.110732
337.800 1.095686
337.900 1.086987
338.000 1.094863
338.100 1.108264
338.200 1.118373
338.300 1.125779
338.400 1.125309
338.500 1.129893
338.600 1.127189
338.700 1.115199
338.800 1.106148
338.900 1.113554
339.000 1.127542
339.100 1.140002
339.200 1.137886
339.300 1.126602
339.400 1.132597
339.500 1.141295
339.600 1.150582
339.700 1.150112
339.800 1.147055
339.900 1.128365
340.000 1.110262
340.100 1.107088
340.200 1.093335
340.300 1.089103
340.400 1.086282
340.500 1.092394
340.600 1.088515
340.700 1.086635
340.800 1.089926
340.900 1.093452
341.000 1.101211
341.100 1.091219
341.200 1.090514
341.300 1.097567
341.400 1.106030
341.500 1.113318
341.600 1.114964
341.700 1.114847
341.800 1.121665
341.900 1.128130
342.000 1.131539
342.100 1.130716
342.200 1.118608
342.300 1.107911
342.400 1.104620
342.500 1.106148
342.600 1.111555
342.700 1.119314
342.800 1.130598
342.900 1.139179
343.000 1.134713
343.100 1.124133
343.200 1.113671
343.300 1.110615
343.400 1.118608
343.500 1.129305
343.600 1.133184
343.700 1.128012
343.800 1.120959
343.900 1.112260
344.000 1.098860
344.100 1.083578
344.200 1.076055
344.300 1.076173
344.400 1.079934
344.500 1.085812
344.600 1.098977
344.700 1.114141
344.800 1.130246
344.900 1.142001
345.000 1.117315
345.100 1.085812
345.200 1.067826
345.300 1.061831
345.400 1.072058
345.500 1.075115
345.600 1.073234
345.700 1.073586
345.800 1.069472
345.900 1.067709
346.000 1.061361
346.100 1.058070
346.200 1.065475
346.300 1.081227
346.400 1.077583
346.500 1.072293
346.600 1.074527
346.700 1.082520
346.800 1.087692
346.900 1.093335
347.000 1.100741
347.100 1.097214
347.200 1.089456
347.300 1.074174
347.400 1.064888
347.500 1.059010
347.600 1.060538
347.700 1.065475
347.800 1.064653
347.900 1.063595
348.000 1.072646
348.100 1.077231
348.200 1.070648
348.300 1.062302
348.400 1.062184
348.500 1.078641
348.600 1.093452
348.700 1.098037
348.800 1.096979
348.900 1.087575
349.000 1.077466
349.100 1.079582
349.200 1.090749
349.300 1.092512
349.400 1.086399
349.500 1.075467
349.600 1.067474
349.700 1.071706
349.800 1.074880
349.900 1.074527
350.000 1.060303
350.100 1.051017
350.200 1.058422
350.300 1.062772
350.400 1.058658
350.500 1.048078
350.600 1.041025
350.700 1.040555
350.800 1.041848
350.900 1.046903
351.000 1.053250
351.100 1.056424
351.200 1.053015
351.300 1.043141
351.400 1.039379
351.500 1.047020
351.600 1.060891
351.700 1.069707
351.800 1.072999
351.900 1.066769
352.000 1.061479
352.100 1.057012
352.200 1.051369
352.300 1.049724
352.400 1.047843
352.500 1.043611
352.600 1.047725
352.700 1.052075
352.800 1.059363
352.900 1.068532
353.000 1.077113
353.100 1.084401
353.200 1.084754
353.300 1.069002
353.400 1.053603
353.500 1.047490
353.600 1.055601
353.700 1.064065
353.800 1.068297
353.900 1.073351
354.000 1.074997
354.100 1.073116
354.200 1.073704
354.300 1.080404
354.400 1.085341
354.500 1.083461
354.600 1.080757
354.700 1.079464
354.800 1.080404
354.900 1.079229
355.000 1.079699
355.100 1.085106
355.200 1.085812
355.300 1.077113
355.400 1.066886
355.500 1.065828
355.600 1.071706
355.700 1.082285
355.800 1.087222
355.900 1.084754
356.000 1.079582
356.100 1.080052
356.200 1.080522
356.300 1.074174
356.400 1.062654
356.500 1.052427
356.600 1.049371
356.700 1.048901
356.800 1.050782
356.900 1.047961
357.000 1.037616
357.100 1.018103
357.200 1.006583
357.300 1.004820
357.400 1.007053
357.500 1.013166
357.600 1.020689
357.700 1.022335
357.800 1.022452
357.900 1.019631
358.000 1.016575
358.100 1.012813
358.200 1.007758
358.300 1.006465
358.400 1.003056
358.500 0.995180
358.600 0.984248
358.700 0.978136
358.800 0.980839
358.900 0.995180
359.000 1.009286
359.100 1.014106
359.200 1.010815
359.300 1.009286
359.400 1.011285
359.500 1.017868
359.600 1.023393
359.700 1.026449
359.800 1.029035
359.900 1.031739
360.000 1.033737
360.100 1.026096
360.200 1.022335
360.300 1.018455
360.400 1.018808
360.500 1.021159
360.600 1.021864
360.700 1.018926
360.800 1.017280
360.900 1.020101
361.000 1.021747
361.100 1.021041
361.200 1.022217
361.300 1.021864
361.400 1.023863
361.500 1.031503
361.600 1.035618
361.700 1.035500
361.800 1.033149
361.900 1.029740
362.000 1.029270
362.100 1.032326
362.200 1.041025
362.300 1.046197
362.400 1.047138
362.500 1.054661
362.600 1.066769
362.700 1.077113
362.800 1.073469
362.900 1.059716
363.000 1.041848
363.100 1.031621
363.200 1.034090
363.300 1.045845
363.400 1.056424
363.500 1.053250
363.600 1.038439
363.700 1.034090
363.800 1.038439
363.900 1.042788
364.000 1.045609
364.100 1.044081
364.200 1.038439
364.300 1.030446
364.400 1.024568
364.500 1.025508
364.600 1.022452
364.700 1.020924
364.800 1.021629
364.900 1.020806
365.000 1.021394
365.100 1.022217
365.200 1.027742
365.300 1.033032
365.400 1.038086
365.500 1.043023
365.600 1.048196
365.700 1.048901
365.800 1.047020
365.900 1.044199
366.000 1.038086
366.100 1.031739
366.200 1.025979
366.300 1.026684
366.400 1.030916
366.500 1.033619
366.600 1.033737
366.700 1.029388
366.800 1.024098
366.900 1.021512
367.000 1.023040
367.100 1.025861
367.200 1.031151
367.300 1.032091
367.400 1.028095
367.500 1.020336
367.600 1.010932
367.700 1.002351
367.800 0.997414
367.900 0.999765
368.000 1.005407
368.100 1.012108
368.200 1.011167
368.300 1.007288
368.400 1.006113
368.500 1.001058
368.600 0.994240
368.700 0.995298
368.800 1.012695
368.900 1.035735
369.000 1.036793
369.100 1.019631
369.200 1.016692
369.300 1.028682
369.400 1.045845
369.500 1.049371
369.600 1.024921
369.700 1.006465
369.800 1.012343
369.900 1.049959
370.000 1.093805
370.100 1.098390
370.200 1.059128
370.300 0.988950
370.400 0.951569
370.500 0.949924
370.600 0.993652
370.700 1.043611
370.800 1.081580
370.900 1.068297
371.000 1.016692
371.100 0.965793
371.200 0.934760
371.300 0.955684
371.400 1.016104
371.500 1.103209
371.600 1.158458
371.700 1.188433
371.800 1.175032
371.900 1.112496
372.000 1.005055
372.100 0.932409
372.200 0.895263
372.300 0.928177
372.400 1.010815
372.500 1.106148
372.600 1.164923
372.700 1.216645
372.800 1.237804
372.900 1.241331
373.000 1.221347
373.100 1.162454
373.200 1.054426
373.300 0.959093
373.400 0.874221
373.500 0.857294
373.600 0.906195
373.700 1.009169
373.800 1.105678
373.900 1.217821
374.000 1.278947
374.100 1.320089
374.200 1.328318
374.300 1.316563
374.400 1.289526
374.500 1.249559
374.600 1.186082
374.700 1.103327
374.800 1.009992
374.900 0.904667
375.000 0.862349
375.100 0.873398
375.200 0.944634
375.300 1.054778
375.400 1.166569
375.500 1.235453
375.600 1.295404
375.700 1.316563
375.800 1.324791
375.900 1.323616
376.000 1.323616
376.100 1.330669
376.200 1.343599
376.300 1.337722
376.400 1.320089
376.500 1.278947
376.600 1.218996
376.700 1.150229
376.800 1.044552
376.900 0.942048
377.000 0.859057
377.100 0.833901
377.200 0.889033
377.300 0.996121
377.400 1.087340
377.500 1.177854
377.600 1.247208
377.700 1.307159
377.800 1.371811
377.900 1.414130
378.000 1.459974
378.100 1.482309
378.200 1.497590
378.300 1.501117
378.400 1.502292
378.500 1.501117
378.600 1.492888
378.700 1.472905
378.800 1.452921
378.900 1.430587
379.000 1.401199
379.100 1.368285
379.200 1.314212
379.300 1.251910
379.400 1.173974
379.500 1.063360
379.600 0.958622
379.700 0.851652
379.800 0.804749
379.900 0.835782
380.000 0.941460
380.100 1.051722
380.200 1.168097
380.300 1.238980
380.400 1.308334
380.500 1.357705
380.600 1.391795
380.700 1.431762
380.800 1.463501
380.900 1.501117
381.000 1.530504
381.100 1.548137
381.200 1.542259
381.300 1.530504
381.400 1.516398
381.500 1.518749
381.600 1.525802
381.700 1.532855
381.800 1.524627
381.900 1.496415
382.000 1.474080
382.100 1.467027
382.200 1.479958
382.300 1.479958
382.400 1.456448
382.500 1.424709
382.600 1.388268
382.700 1.358881
382.800 1.317738
382.900 1.268367
383.000 1.217821
383.100 1.143059
383.200 1.065005
383.300 0.957212
383.400 0.841660
383.500 0.782650
383.600 0.775244
383.700 0.833666
383.800 0.929587
383.900 1.030446
384.000 1.115905
384.100 1.208417
384.200 1.276596
384.300 1.349477
384.400 1.396497
384.500 1.438815
384.600 1.474080
384.700 1.499941
384.800 1.519925
384.900 1.529329
385.000 1.538733
385.100 1.557541
385.200 1.577524
385.300 1.591630
385.400 1.590455
385.500 1.583402
385.600 1.575173
385.700 1.571647
385.800 1.578700
385.900 1.590455
386.000 1.601034
386.100 1.606912
386.200 1.604561
386.300 1.586928
386.400 1.582226
386.500 1.578700
386.600 1.581051
386.700 1.586928
386.800 1.590455
386.900 1.589279
387.000 1.576349
387.100 1.557541
387.200 1.532855
387.300 1.522276
387.400 1.518749
387.500 1.518749
387.600 1.506994
387.700 1.477607
387.800 1.449395
387.900 1.422358
388.000 1.404726
388.100 1.378864
388.200 1.331844
388.300 1.283649
388.400 1.217821
388.500 1.139532
388.600 1.043846
388.700 0.917362
388.800 0.823675
388.900 0.775597
389.000 0.807923
389.100 0.901023
389.200 1.020454
389.300 1.107676
389.400 1.189609
389.500 1.247208
389.600 1.307159
389.700 1.356530
389.800 1.389444
389.900 1.417656
390.000 1.437640
390.100 1.467027
390.200 1.495239
390.300 1.516398
390.400 1.526978
390.500 1.532855
390.600 1.543435
390.700 1.564594
390.800 1.595157
390.900 1.622193
391.000 1.635124
391.100 1.641002
391.200 1.637475
391.300 1.625720
391.400 1.613965
391.500 1.616316
391.600 1.629247
391.700 1.635124
391.800 1.633949
391.900 1.625720
392.000 1.623369
392.100 1.624544
392.200 1.623369
392.300 1.622193
392.400 1.622193
392.500 1.623369
392.600 1.613965
392.700 1.602210
392.800 1.579875
392.900 1.555190
393.000 1.521100
393.100 1.452921
393.200 1.349477
393.300 1.234278
393.400 1.207241
393.500 1.277771
393.600 1.395321
393.700 1.489362
393.800 1.552839
393.900 1.584577
394.000 1.603385
394.100 1.617491
394.200 1.619842
394.300 1.611614
394.400 1.601034
394.500 1.590455
394.600 1.586928
394.700 1.586928
394.800 1.579875
394.900 1.570471
395.000 1.562243
395.100 1.552839
395.200 1.543435
395.300 1.541084
395.400 1.536382
395.500 1.518749
395.600 1.497590
395.700 1.475256
395.800 1.459974
395.900 1.439991
396.000 1.405901
396.100 1.367109
396.200 1.315387
396.300 1.270718
396.400 1.209592
396.500 1.126131
396.600 1.021982
396.700 0.870107
396.800 0.741389
396.900 0.654285
397.000 0.647584
397.100 0.714353
397.200 0.831786
397.300 0.941930
397.400 1.054896
397.500 1.136006
397.600 1.209592
397.700 1.270718
397.800 1.313036
397.900 1.361232
398.000 1.389444
398.100 1.417656
398.200 1.441166
398.300 1.461150
398.400 1.484660
398.500 1.504643
398.600 1.518749
398.700 1.526978
398.800 1.546961
398.900 1.556365
399.000 1.565769
399.100 1.573998
399.200 1.579875
399.300 1.586928
399.400 1.592806
399.500 1.596332
399.600 1.592806
399.700 1.589279
399.800 1.588104
399.900 1.595157
400.000 1.597508
400.100 1.597508
400.200 1.597508
400.300 1.591630
400.400 1.588104
400.500 1.584577
400.600 1.585753
400.700 1.591630
400.800 1.601034
400.900 1.603385
401.000 1.604561
401.100 1.606912
401.200 1.609263
401.300 1.611614
401.400 1.611614
401.500 1.617491
401.600 1.625720
401.700 1.633949
401.800 1.641002
401.900 1.644528
402.000 1.644528
402.100 1.639826
402.200 1.632773
402.300 1.616316
402.400 1.593981
402.500 1.576349
402.600 1.571647
402.700 1.586928
402.800 1.605736
402.900 1.616316
403.000 1.622193
403.100 1.621018
403.200 1.622193
403.300 1.623369
403.400 1.628071
403.500 1.638651
403.600 1.648055
403.700 1.656283
403.800 1.656283
403.900 1.650406
404.000 1.645704
404.100 1.642177
404.200 1.641002
404.300 1.636300
404.400 1.619842
404.500 1.602210
404.600 1.592806
404.700 1.605736
404.800 1.623369
404.900 1.635124
405.000 1.636300
405.100 1.637475
405.200 1.633949
405.300 1.624544
405.400 1.617491
405.500 1.617491
405.600 1.622193
405.700 1.626895
405.800 1.626895
405.900 1.631598
406.000 1.633949
406.100 1.624544
406.200 1.606912
406.300 1.589279
406.400 1.575173
406.500 1.554014
406.600 1.554014
406.700 1.558716
406.800 1.557541
406.900 1.555190
407.000 1.545786
407.100 1.526978
407.200 1.517574
407.300 1.518749
407.400 1.523451
407.500 1.522276
407.600 1.505819
407.700 1.490537
407.800 1.483484
407.900 1.490537
408.000 1.501117
408.100 1.505819
408.200 1.503468
408.300 1.494064
408.400 1.482309
408.500 1.468203
408.600 1.455272
408.700 1.448219
408.800 1.438815
408.900 1.429411
409.000 1.407077
409.100 1.387093
409.200 1.369460
409.300 1.335371
409.400 1.302457
409.500 1.248384
409.600 1.194311
409.700 1.136828
409.800 1.058305
409.900 0.971670
410.000 0.859645
410.100 0.774656
410.200 0.747737
410.300 0.801693
410.400 0.898084
410.500 1.007876
410.600 1.083226
410.700 1.149759
410.800 1.201364
410.900 1.241331
411.000 1.282473
411.100 1.311861
411.200 1.344775
411.300 1.370636
411.400 1.392970
411.500 1.415305
411.600 1.432938
411.700 1.442342
411.800 1.442342
411.900 1.443517
412.000 1.447044
412.100 1.456448
412.200 1.465852
412.300 1.475256
412.400 1.488186
412.500 1.497590
412.600 1.496415
412.700 1.489362
412.800 1.482309
412.900 1.479958
413.000 1.479958
413.100 1.481133
413.200 1.484660
413.300 1.494064
413.400 1.511696
413.500 1.523451
413.600 1.530504
413.700 1.536382
413.800 1.543435
413.900 1.550488
414.000 1.549312
414.100 1.539908
414.200 1.523451
414.300 1.509345
414.400 1.505819
414.500 1.514047
414.600 1.528153
414.700 1.535206
414.800 1.537557
414.900 1.538733
415.000 1.541084
415.100 1.546961
415.200 1.546961
415.300 1.543435
