# Wavelength (nm)   F_lamA (normalized erg/cm2/s/A)9.100 0.000001
9.400 0.000003
9.600 0.000005
9.800 0.000008
10.000 0.000013
10.200 0.000020
10.400 0.000029
10.600 0.000043
10.800 0.000063
11.000 0.000090
11.400 0.000175
11.800 0.000326
12.100 0.000503
12.500 0.000865
12.700 0.001118
12.800 0.001267
13.100 0.001819
13.200 0.002044
13.400 0.002565
13.700 0.003555
14.000 0.004846
14.300 0.006508
14.700 0.009436
15.100 0.013371
15.500 0.018549
15.900 0.025250
16.200 0.031443
16.600 0.041501
17.000 0.053947
17.300 0.065035
17.700 0.082465
18.000 0.097732
18.200 0.109014
18.600 0.134517
19.100 0.172362
19.400 0.198329
19.800 0.237427
20.200 0.281749
20.500 0.318460
21.000 0.386957
21.600 0.481421
22.000 0.552306
22.300 0.609760
22.700 0.691986
23.000 22.802567
23.400 25.100731
24.000 32.248918
24.600 43.784510
25.200 53.424862
25.700 41.754962
26.000 59.035965
26.400 74.153111
26.900 75.361886
27.400 76.525892
27.900 73.705417
28.400 77.286972
29.000 76.869124
29.600 70.959558
30.100 49.977615
30.800 61.692285
31.800 76.003582
32.800 76.197582
33.800 74.675422
34.800 73.287569
35.700 74.317266
36.600 75.108193
37.500 73.854649
38.500 69.944784
39.500 71.616177
40.500 71.660946
41.400 70.646172
42.200 68.840472
43.000 67.661543
44.100 67.631697
45.100 66.437845
46.000 64.572452
47.000 63.348754
48.000 62.692136
49.000 60.632741
50.000 60.364125
50.600 62.901060
51.200 71.660946
52.000 70.288017
53.000 68.959857
54.000 65.557379
55.000 64.438144
56.000 65.766304
57.000 64.766453
58.000 62.856290
59.000 62.289211
60.000 60.423817
61.000 58.558424
62.000 58.871810
63.000 57.498881
64.000 56.812416
65.000 55.409640
65.800 53.947172
66.500 53.932249
67.500 53.186092
68.500 51.261006
69.500 51.111774
70.500 49.126996
71.600 49.141919
72.600 48.306223
73.500 47.515296
74.500 46.396060
75.500 45.426056
76.500 44.187435
77.500 43.680048
78.500 42.739890
79.500 41.978809
80.500 41.337114
81.500 40.620803
82.500 39.949261
83.500 38.322638
84.500 38.412177
85.500 37.606327
86.500 37.098940
87.500 36.427399
88.500 35.740934
89.500 35.054469
90.500 34.174004
91.500 36.502015
92.500 51.365468
93.500 63.139830
94.500 77.689897
95.500 81.062528
96.500 88.837487
97.500 67.019848
98.500 85.509625
99.500 80.077600
100.500 82.420534
101.500 79.629906
102.500 60.931204
103.500 75.197732
104.500 76.212506
105.500 74.496344
106.500 71.466945
107.500 70.362632
108.500 65.870766
109.500 67.661543
110.500 65.617072
111.500 64.124757
112.500 61.662438
113.500 61.393822
114.500 59.752276
115.500 58.274884
116.500 56.991494
117.500 52.559320
118.500 54.141173
119.500 52.678705
120.500 50.604387
121.500 40.023877
122.500 48.485301
123.500 48.216684
124.500 47.172064
125.500 46.575138
126.500 45.575287
127.500 44.694822
128.500 43.754663
129.500 42.471273
130.500 41.635577
131.500 40.993882
132.500 39.979108
133.500 39.038949
134.500 38.427100
135.500 37.606327
136.500 36.710939
137.500 35.860319
138.500 35.233547
139.500 33.278615
140.500 32.129533
141.500 33.114461
142.500 32.323534
143.500 31.801224
144.200 31.308760
144.700 30.995374
145.500 30.458141
146.500 29.861215
147.500 29.294135
148.500 28.771825
149.500 28.174899
150.500 27.607820
151.200 27.234741
151.700 26.951201
152.500 26.503507
153.500 25.757350
154.500 24.712729
155.500 24.369497
156.500 24.324728
157.500 23.981495
158.500 23.578570
159.500 23.145799
160.500 22.519027
161.500 22.101179
162.500 21.683331
163.500 21.101328
164.500 20.176093
165.500 20.653634
166.500 20.295478
167.200 19.937323
167.700 19.937323
168.500 19.638860
169.500 19.280704
170.500 18.892703
171.500 18.415162
172.500 18.161468
173.500 17.952544
174.500 17.624235
175.500 17.295926
176.500 16.997463
177.500 16.728846
178.500 16.460230
179.500 16.176690
180.500 15.908073
181.500 15.624534
182.500 15.355917
183.500 15.102224
184.500 14.799284
185.500 14.520221
186.500 14.302343
187.500 14.099388
188.500 13.809879
189.500 13.553201
190.500 13.396508
191.500 13.133861
192.500 12.889121
193.500 12.739890
194.500 12.563796
195.500 12.296672
196.700 12.120579
197.600 11.968363
198.400 11.787793
199.500 11.549023
200.500 11.413222
201.500 11.247575
202.500 11.081928
203.500 10.892404
204.500 10.720788
205.500 9.112073
206.500 9.453813
207.400 10.264140
207.800 10.252201
208.500 10.164155
209.500 10.026862
210.500 9.885092
211.500 9.783614
212.500 9.635875
213.500 9.482167
214.500 9.332935
215.500 9.256827
216.500 9.043426
217.500 8.982241
218.500 8.777794
219.500 8.728548
220.500 8.597224
221.500 8.389793
222.500 8.343531
223.500 8.228623
224.500 8.109237
225.500 7.903298
226.500 7.874944
227.500 7.766005
228.500 7.657066
229.500 7.498881
230.500 7.351142
231.500 7.336218
232.500 7.148187
233.500 7.124310
234.500 7.018355
235.500 6.934786
236.500 6.827339
237.500 6.739293
238.500 6.540815
239.500 6.549769
240.500 6.461722
241.500 6.376660
242.500 6.303537
243.500 6.216983
244.500 6.137890
245.500 6.055813
246.500 5.975228
247.500 5.893150
248.500 5.817042
249.500 5.651395
250.500 5.663334
251.300 5.397702
251.800 5.560364
252.500 5.512610
253.500 5.442471
254.500 5.372332
255.500 5.312640
256.500 5.241009
257.500 5.179824
258.500 5.111177
259.500 5.042531
260.500 4.976869
261.500 4.911207
262.500 4.858976
263.500 4.806745
264.500 4.770930
265.500 4.714222
266.500 4.645575
267.500 4.593344
268.500 4.547083
269.500 4.475451
270.500 4.433667
271.500 4.372482
272.500 4.309805
273.500 4.203850
274.500 4.197881
275.500 4.157588
276.500 4.108342
277.500 4.081480
278.500 4.021788
279.500 3.927772
280.500 3.893449
281.500 3.896433
282.500 3.851664
283.500 3.811371
284.500 3.771079
285.500 3.720340
286.500 3.690494
287.500 3.648709
288.500 3.611401
289.500 3.569616
291.000 3.523355
293.000 3.444262
295.000 3.362185
297.000 3.301000
299.000 3.233846
301.000 3.157738
303.000 3.081630
305.000 3.009999
307.000 2.938367
309.000 2.872706
311.000 2.802567
313.000 2.736905
315.000 2.680197
317.000 2.621997
319.000 2.544396
321.000 2.484704
323.000 2.442919
325.000 2.398150
327.000 2.353380
329.000 2.305626
331.000 2.263841
332.200 2.192210
332.300 2.205641
332.400 2.204149
332.500 2.211610
332.600 2.193702
332.700 2.163856
332.800 2.150425
332.900 2.154902
333.000 2.165348
333.100 2.166841
333.200 2.157887
333.300 2.141471
333.400 2.128041
333.500 2.119087
333.600 2.102671
333.700 2.098194
333.800 2.104164
333.900 2.108641
334.000 2.093717
334.100 2.089240
334.200 2.092225
334.300 2.135502
334.400 2.174302
334.500 2.190718
334.600 2.198179
334.700 2.192210
334.800 2.162364
334.900 2.113117
335.000 2.044471
335.100 2.044471
335.200 2.066856
335.300 2.077302
335.400 2.075810
335.500 2.060886
335.600 2.050440
335.700 2.038502
335.800 2.020594
335.900 2.002686
336.000 1.998209
336.100 2.010148
336.200 2.035517
336.300 2.053425
336.400 2.060886
336.500 2.044471
336.600 2.019102
336.700 2.002686
336.800 1.986271
336.900 1.980301
337.000 1.984778
337.100 1.983286
337.200 1.972840
337.300 1.990748
337.400 2.013132
337.500 2.039994
337.600 2.050440
337.700 2.035517
337.800 2.019102
337.900 2.016117
338.000 2.029548
338.100 2.051933
338.200 2.059394
338.300 2.060886
338.400 2.050440
338.500 2.057902
338.600 2.069840
338.700 2.078794
338.800 2.083271
338.900 2.065363
339.000 2.053425
339.100 2.050440
339.200 2.059394
339.300 2.071333
339.400 2.099687
339.500 2.108641
339.600 2.099687
339.700 2.087748
339.800 2.074317
339.900 2.034025
340.000 2.005671
340.100 2.001194
340.200 1.978809
340.300 1.971348
340.400 1.978809
340.500 1.990748
340.600 1.983286
340.700 1.975825
340.800 1.977317
340.900 1.981794
341.000 1.995225
341.100 1.975825
341.200 1.972840
341.300 1.986271
341.400 2.002686
341.500 2.016117
341.600 2.019102
341.700 2.023579
341.800 2.028056
341.900 2.037009
342.000 2.039994
342.100 2.044471
342.200 2.041486
342.300 2.039994
342.400 2.029548
342.500 2.025071
342.600 2.026563
342.700 2.032532
342.800 2.048948
342.900 2.057902
343.000 2.045963
343.100 2.031040
343.200 2.017609
343.300 2.016117
343.400 2.023579
343.500 2.041486
343.600 2.050440
343.700 2.045963
343.800 2.028056
343.900 2.002686
344.000 1.968363
344.100 1.948963
344.200 1.948963
344.300 1.965378
344.400 1.983286
344.500 1.975825
344.600 1.975825
344.700 1.977317
344.800 1.996717
344.900 2.014625
345.000 1.977317
345.100 1.937024
345.200 1.922101
345.300 1.922101
345.400 1.934040
345.500 1.941501
345.600 1.947471
345.700 1.944486
345.800 1.931055
345.900 1.920609
346.000 1.911655
346.100 1.911655
346.200 1.929563
346.300 1.996717
346.400 1.972840
346.500 1.965378
346.600 1.968363
346.700 1.963886
346.800 1.963886
346.900 1.975825
347.000 1.981794
347.100 1.951947
347.200 1.945978
347.300 1.962394
347.400 1.948963
347.500 1.932547
347.600 1.908670
347.700 1.874347
347.800 1.848978
347.900 1.851962
348.000 1.881809
348.100 1.913147
348.200 1.905686
348.300 1.883301
348.400 1.884793
348.500 1.922101
348.600 1.941501
348.700 1.953440
348.800 1.971348
348.900 1.968363
349.000 1.944486
349.100 1.934040
349.200 1.948963
349.300 1.951947
349.400 1.950455
349.500 1.935532
349.600 1.901209
349.700 1.899716
349.800 1.917624
349.900 1.944486
350.000 1.938517
350.100 1.898224
350.200 1.896732
350.300 1.905686
350.400 1.898224
350.500 1.877332
350.600 1.866886
350.700 1.871362
350.800 1.880316
350.900 1.881809
351.000 1.874347
351.100 1.871362
351.200 1.865393
351.300 1.857932
351.400 1.863901
351.500 1.863901
351.600 1.883301
351.700 1.886286
351.800 1.890763
351.900 1.887778
352.000 1.878824
352.100 1.869870
352.200 1.865393
352.300 1.865393
352.400 1.874347
352.500 1.845993
352.600 1.844501
352.700 1.847485
352.800 1.862409
352.900 1.886286
353.000 1.895240
353.100 1.899716
353.200 1.908670
353.300 1.899716
353.400 1.877332
353.500 1.872855
353.600 1.878824
353.700 1.865393
353.800 1.868378
353.900 1.874347
354.000 1.892255
354.100 1.901209
354.200 1.893747
354.300 1.884793
354.400 1.889270
354.500 1.893747
354.600 1.889270
354.700 1.895240
354.800 1.905686
354.900 1.905686
355.000 1.890763
355.100 1.881809
355.200 1.886286
355.300 1.893747
355.400 1.892255
355.500 1.881809
355.600 1.871362
355.700 1.880316
355.800 1.887778
355.900 1.886286
356.000 1.881809
356.100 1.887778
356.200 1.895240
356.300 1.889270
356.400 1.883301
356.500 1.880316
356.600 1.869870
356.700 1.844501
356.800 1.848978
356.900 1.848978
357.000 1.823608
357.100 1.781824
357.200 1.772870
357.300 1.775854
357.400 1.771377
357.500 1.777347
357.600 1.787793
357.700 1.792270
357.800 1.796747
357.900 1.795254
358.000 1.799731
358.100 1.798239
358.200 1.783316
358.300 1.787793
358.400 1.796747
358.500 1.780331
358.600 1.753470
358.700 1.741531
358.800 1.737054
358.900 1.740039
359.000 1.756454
359.100 1.774362
359.200 1.783316
359.300 1.792270
359.400 1.793762
359.500 1.790777
359.600 1.786301
359.700 1.789285
359.800 1.799731
359.900 1.813162
360.000 1.831070
360.100 1.822116
360.200 1.813162
360.300 1.789285
360.400 1.777347
360.500 1.783316
360.600 1.786301
360.700 1.789285
360.800 1.796747
360.900 1.798239
361.000 1.786301
361.100 1.762424
361.200 1.763916
361.300 1.762424
361.400 1.750485
361.500 1.757947
361.600 1.783316
361.700 1.801224
361.800 1.798239
361.900 1.783316
362.000 1.763916
362.100 1.769885
362.200 1.796747
362.300 1.802716
362.400 1.793762
362.500 1.792270
362.600 1.804208
362.700 1.822116
362.800 1.817639
362.900 1.802716
363.000 1.793762
363.100 1.783316
363.200 1.760931
363.300 1.756454
363.400 1.783316
363.500 1.793762
363.600 1.765408
363.700 1.747500
363.800 1.754962
363.900 1.760931
364.000 1.765408
364.100 1.771377
364.200 1.763916
364.300 1.743023
364.400 1.719146
364.500 1.714669
364.600 1.722131
364.700 1.728100
364.800 1.737054
364.900 1.741531
365.000 1.738546
365.100 1.732577
365.200 1.734070
365.300 1.737054
365.400 1.738546
365.500 1.750485
365.600 1.756454
365.700 1.753470
365.800 1.753470
365.900 1.750485
366.000 1.737054
366.100 1.731085
366.200 1.729593
366.300 1.735562
366.400 1.740039
366.500 1.737054
366.600 1.734070
366.700 1.729593
366.800 1.726608
366.900 1.732577
367.000 1.729593
367.100 1.725116
367.200 1.728100
367.300 1.732577
367.400 1.729593
367.500 1.725116
367.600 1.728100
367.700 1.716162
367.800 1.705716
367.900 1.704223
368.000 1.710193
368.100 1.720639
368.200 1.732577
368.300 1.723623
368.400 1.708700
368.500 1.702731
368.600 1.696762
368.700 1.692285
368.800 1.710193
368.900 1.738546
369.000 1.751977
369.100 1.743023
369.200 1.740039
369.300 1.747500
369.400 1.748993
369.500 1.746008
369.600 1.732577
369.700 1.714669
369.800 1.716162
369.900 1.748993
370.000 1.798239
370.100 1.801224
370.200 1.763916
370.300 1.701239
370.400 1.649008
370.500 1.626623
370.600 1.649008
370.700 1.689300
370.800 1.716162
370.900 1.710193
371.000 1.680346
371.100 1.649008
371.200 1.625131
371.300 1.635577
371.400 1.692285
371.500 1.762424
371.600 1.793762
371.700 1.807193
371.800 1.805701
371.900 1.753470
372.000 1.659454
372.100 1.593792
372.200 1.557976
372.300 1.563946
372.400 1.631100
372.500 1.717654
372.600 1.754962
372.700 1.768393
372.800 1.774362
372.900 1.784808
373.000 1.789285
373.100 1.756454
373.200 1.683331
373.300 1.605730
373.400 1.532607
373.500 1.501268
373.600 1.526638
373.700 1.601254
373.800 1.669900
373.900 1.750485
374.000 1.802716
374.100 1.820624
374.200 1.805701
374.300 1.781824
374.400 1.766900
374.500 1.746008
374.600 1.696762
374.700 1.626623
374.800 1.563946
374.900 1.485450
375.000 1.454857
375.100 1.492315
375.200 1.578869
375.300 1.657961
375.400 1.720639
375.500 1.762424
375.600 1.786301
375.700 1.768393
375.800 1.713177
375.900 1.669900
376.000 1.653485
376.100 1.657961
376.200 1.707208
376.300 1.744516
376.400 1.748993
376.500 1.735562
376.600 1.704223
376.700 1.659454
376.800 1.595284
376.900 1.529622
377.000 1.469482
377.100 1.453664
377.200 1.504253
377.300 1.592300
377.400 1.654977
377.500 1.687808
377.600 1.708700
377.700 1.735562
377.800 1.772870
377.900 1.792270
378.000 1.807193
378.100 1.822116
378.200 1.826593
378.300 1.813162
378.400 1.805701
378.500 1.807193
378.600 1.792270
378.700 1.756454
378.800 1.734070
378.900 1.734070
379.000 1.738546
379.100 1.738546
379.200 1.737054
379.300 1.717654
379.400 1.663931
379.500 1.584838
379.600 1.501268
379.700 1.421131
379.800 1.380988
379.900 1.399791
380.000 1.504253
380.100 1.622146
380.200 1.704223
380.300 1.748993
380.400 1.774362
380.500 1.787793
380.600 1.768393
380.700 1.760931
380.800 1.769885
380.900 1.792270
381.000 1.819131
381.100 1.828085
381.200 1.793762
381.300 1.746008
381.400 1.708700
381.500 1.701239
381.600 1.713177
381.700 1.735562
381.800 1.743023
381.900 1.732577
382.000 1.705716
382.100 1.683331
382.200 1.710193
382.300 1.744516
382.400 1.726608
382.500 1.690792
382.600 1.665423
382.700 1.675869
382.800 1.684823
382.900 1.669900
383.000 1.646023
383.100 1.610207
383.200 1.547530
383.300 1.454111
383.400 1.358752
383.500 1.307118
383.600 1.308312
383.700 1.379496
383.800 1.467990
383.900 1.544546
384.000 1.592300
384.100 1.635577
384.200 1.669900
384.300 1.710193
384.400 1.748993
384.500 1.775854
384.600 1.771377
384.700 1.769885
384.800 1.763916
384.900 1.760931
385.000 1.744516
385.100 1.750485
385.200 1.766900
385.300 1.777347
385.400 1.775854
385.500 1.765408
385.600 1.743023
385.700 1.731085
385.800 1.731085
385.900 1.737054
386.000 1.738546
386.100 1.753470
386.200 1.760931
386.300 1.751977
386.400 1.750485
386.500 1.743023
386.600 1.737054
386.700 1.748993
386.800 1.771377
386.900 1.780331
387.000 1.765408
387.100 1.738546
387.200 1.699746
387.300 1.680346
387.400 1.692285
387.500 1.720639
387.600 1.737054
387.700 1.720639
387.800 1.693777
387.900 1.686315
388.000 1.708700
388.100 1.713177
388.200 1.690792
388.300 1.663931
388.400 1.643038
388.500 1.592300
388.600 1.507238
388.700 1.393822
388.800 1.305328
388.900 1.266229
389.000 1.315028
389.100 1.434711
389.200 1.552007
389.300 1.626623
389.400 1.656469
389.500 1.662438
389.600 1.665423
389.700 1.683331
389.800 1.693777
389.900 1.678854
390.000 1.672885
390.100 1.695269
390.200 1.720639
390.300 1.734070
390.400 1.732577
390.500 1.725116
390.600 1.704223
390.700 1.708700
390.800 1.746008
390.900 1.783316
391.000 1.790777
391.100 1.789285
391.200 1.775854
391.300 1.741531
391.400 1.716162
391.500 1.720639
391.600 1.731085
391.700 1.735562
391.800 1.729593
391.900 1.711685
392.000 1.701239
392.100 1.698254
392.200 1.689300
392.300 1.675869
392.400 1.675869
392.500 1.686315
392.600 1.672885
392.700 1.651992
392.800 1.611700
392.900 1.568423
393.000 1.516192
393.100 1.436800
393.200 1.289509
393.300 1.099985
393.400 1.087450
393.500 1.221161
393.600 1.338009
393.700 1.426802
393.800 1.504253
393.900 1.568423
394.000 1.625131
394.100 1.656469
394.200 1.666915
394.300 1.665423
394.400 1.666915
394.500 1.656469
394.600 1.663931
394.700 1.683331
394.800 1.683331
394.900 1.668408
395.000 1.659454
395.100 1.654977
395.200 1.656469
395.300 1.666915
395.400 1.680346
395.500 1.686315
395.600 1.669900
395.700 1.646023
395.800 1.638561
395.900 1.650500
396.000 1.656469
396.100 1.640054
396.200 1.598269
396.300 1.552007
396.400 1.499776
396.500 1.435905
396.600 1.334577
396.700 1.144008
396.800 0.951649
396.900 0.877481
397.000 0.921653
397.100 1.036562
397.200 1.193106
397.300 1.324578
397.400 1.425907
397.500 1.504253
397.600 1.565438
397.700 1.596777
397.800 1.611700
397.900 1.637069
398.000 1.649008
398.100 1.647515
398.200 1.632592
398.300 1.622146
398.400 1.640054
398.500 1.666915
398.600 1.653485
398.700 1.616177
398.800 1.653485
398.900 1.668408
399.000 1.678854
399.100 1.689300
399.200 1.701239
399.300 1.713177
399.400 1.707208
399.500 1.693777
399.600 1.663931
399.700 1.647515
399.800 1.646023
399.900 1.653485
400.000 1.659454
400.100 1.666915
400.200 1.668408
400.300 1.668408
400.400 1.668408
400.500 1.656469
400.600 1.651992
400.700 1.662438
400.800 1.684823
400.900 1.692285
401.000 1.686315
401.100 1.683331
401.200 1.675869
401.300 1.672885
401.400 1.680346
401.500 1.690792
401.600 1.702731
401.700 1.713177
401.800 1.722131
401.900 1.731085
402.000 1.732577
402.100 1.717654
402.200 1.696762
402.300 1.665423
402.400 1.628115
402.500 1.599761
402.600 1.613192
402.700 1.646023
402.800 1.669900
402.900 1.675869
403.000 1.674377
403.100 1.663931
403.200 1.662438
403.300 1.668408
403.400 1.674377
403.500 1.684823
403.600 1.696762
403.700 1.714669
403.800 1.729593
403.900 1.726608
404.000 1.723623
404.100 1.722131
404.200 1.713177
404.300 1.705716
404.400 1.690792
404.500 1.668408
404.600 1.647515
404.700 1.668408
404.800 1.696762
404.900 1.708700
405.000 1.708700
405.100 1.710193
405.200 1.710193
405.300 1.698254
405.400 1.692285
405.500 1.698254
405.600 1.707208
405.700 1.713177
405.800 1.722131
405.900 1.732577
406.000 1.723623
406.100 1.690792
406.200 1.683331
406.300 1.674377
406.400 1.634084
406.500 1.580361
406.600 1.613192
406.700 1.644531
406.800 1.647515
406.900 1.646023
407.000 1.640054
407.100 1.625131
407.200 1.617669
407.300 1.616177
407.400 1.634084
407.500 1.635577
407.600 1.605730
407.700 1.575884
407.800 1.565438
407.900 1.598269
408.000 1.638561
408.100 1.662438
408.200 1.665423
408.300 1.659454
408.400 1.643038
408.500 1.631100
408.600 1.625131
408.700 1.640054
408.800 1.660946
408.900 1.674377
409.000 1.671392
409.100 1.665423
409.200 1.662438
409.300 1.641546
409.400 1.623638
409.500 1.599761
409.600 1.569915
409.700 1.532607
409.800 1.473661
409.900 1.404119
410.000 1.310998
410.100 1.212655
410.200 1.160722
410.300 1.212804
410.400 1.342337
410.500 1.475899
410.600 1.546038
410.700 1.571407
410.800 1.581853
410.900 1.581853
411.000 1.580361
411.100 1.589315
411.200 1.608715
411.300 1.629608
411.400 1.651992
411.500 1.668408
411.600 1.675869
411.700 1.662438
411.800 1.637069
411.900 1.616177
412.000 1.614684
412.100 1.616177
412.200 1.607223
412.300 1.602746
412.400 1.619161
412.500 1.640054
412.600 1.647515
412.700 1.628115
412.800 1.599761
412.900 1.593792
413.000 1.599761
413.100 1.604238
413.200 1.598269
413.300 1.598269
413.400 1.613192
413.500 1.631100
413.600 1.644531
413.700 1.654977
413.800 1.666915
413.900 1.675869
414.000 1.678854
414.100 1.672885
414.200 1.649008
414.300 1.614684
