# Wavelength (nm)   F_lamA (normalized erg/cm2/s/A)9.100 0.000320
9.400 0.000373
9.600 0.000412
9.800 0.000453
10.000 0.000497
10.200 0.000545
10.400 0.000595
10.600 0.000650
10.800 0.000708
11.000 0.000770
11.400 0.000908
11.800 0.001063
12.100 0.001195
12.500 0.001392
12.700 0.001500
12.800 0.001558
13.100 0.001742
13.200 0.001807
13.400 0.001945
13.700 0.002172
14.000 0.002424
14.300 0.002704
14.700 0.003131
15.100 0.003626
15.500 0.004202
15.900 0.004870
16.200 0.005442
16.600 0.006308
17.000 0.007311
17.300 0.008158
17.700 0.009439
18.000 0.010522
18.200 0.011304
18.600 0.013020
19.100 0.015486
19.400 0.017146
19.800 0.019581
20.200 0.022300
20.500 0.024522
21.000 0.028601
21.600 0.034150
22.000 0.038253
22.300 0.041549
22.700 0.046245
23.000 1.271146
23.400 1.392885
24.000 1.778656
24.600 2.409486
25.200 2.930435
25.700 2.277470
26.000 3.230040
26.400 4.063241
26.900 4.132806
27.400 4.194466
27.900 4.033202
28.400 4.239526
29.000 4.217391
29.600 3.879051
30.100 2.701186
30.800 3.344664
31.800 4.151779
32.800 4.159684
33.800 4.076680
34.800 4.000791
35.700 4.056126
36.600 4.101186
37.500 4.031621
38.500 3.816601
39.500 3.911462
40.500 3.915415
41.400 3.862451
42.200 3.764427
43.000 3.700395
44.100 3.703557
45.100 3.640316
46.000 3.540711
47.000 3.477470
48.000 3.445059
49.000 3.335968
50.000 3.325692
50.600 3.575494
51.200 4.232411
52.000 4.150198
53.000 4.075099
54.000 3.861660
55.000 3.814229
56.000 3.914625
57.000 3.862451
58.000 3.742292
59.000 3.724111
60.000 3.615020
61.000 3.512253
62.000 3.547826
63.000 3.471937
64.000 3.434783
65.000 3.357312
65.800 3.273518
66.500 3.278261
67.500 3.242688
68.500 3.125692
69.500 3.131225
70.500 3.010277
71.600 3.026877
72.600 2.982609
73.500 2.942292
74.500 2.879051
75.500 2.826087
76.500 2.755731
77.500 2.730435
78.500 2.683004
79.500 2.641897
80.500 2.607115
81.500 2.569960
82.500 2.536759
83.500 2.430830
84.500 2.452174
85.500 2.407905
86.500 2.383399
87.500 2.347826
88.500 2.310672
89.500 2.273518
90.500 2.223715
91.500 2.375494
92.500 4.122530
93.500 5.761265
94.500 8.442688
95.500 9.628458
96.500 11.217391
97.500 6.816601
98.500 11.857708
99.500 11.675889
100.500 12.055336
101.500 10.727273
102.500 6.237154
103.500 9.841897
104.500 11.533597
105.500 11.660079
106.500 11.138340
107.500 11.328063
108.500 10.600791
109.500 11.043478
110.500 10.687747
111.500 10.498024
112.500 10.000000
113.500 10.094862
114.500 9.699605
115.500 9.565217
116.500 9.375494
117.500 8.379447
118.500 8.656126
119.500 7.944664
120.500 6.974704
121.500 4.258498
122.500 6.656126
123.500 7.464822
124.500 7.630830
125.500 7.692490
126.500 7.540711
127.500 7.626877
128.500 7.582609
129.500 7.320158
130.500 7.196047
131.500 7.277470
132.500 7.111462
133.500 6.932806
134.500 6.960474
135.500 6.837154
136.500 6.689328
137.500 6.589723
138.500 6.517787
139.500 6.222134
140.500 6.109091
141.500 6.197628
142.500 6.086166
143.500 5.988933
144.200 5.957312
144.700 5.905929
145.500 5.829249
146.500 5.710672
147.500 5.630040
148.500 5.544664
149.500 5.449012
150.500 5.361265
151.200 5.286957
151.700 5.259289
152.500 5.168379
153.500 5.015020
154.500 4.931225
155.500 4.829249
156.500 4.773913
157.500 4.763636
158.500 4.724901
159.500 4.684585
160.500 4.534387
161.500 4.478261
162.500 4.388142
163.500 4.327273
164.500 4.222925
165.500 4.188933
166.500 4.226087
167.200 4.098814
167.700 4.143083
168.500 4.120158
169.500 4.036364
170.500 3.964427
171.500 3.903557
172.500 3.846640
173.500 3.844269
174.500 3.768379
175.500 3.745455
176.500 3.627668
177.500 3.637945
178.500 3.586561
179.500 3.562846
180.500 3.529644
181.500 3.471937
182.500 3.422134
183.500 3.380237
184.500 3.293281
185.500 3.242688
186.500 3.216601
187.500 3.204743
188.500 3.136759
189.500 3.083004
190.500 3.075099
191.500 3.015810
192.500 2.978656
193.500 2.947826
194.500 2.950198
195.500 2.883004
196.700 2.878261
197.600 2.849012
198.400 2.807905
199.500 2.750988
200.500 2.732016
201.500 2.701186
202.500 2.672727
203.500 2.649802
204.500 2.625296
205.500 2.443478
206.500 2.466403
207.400 2.556522
207.800 2.534387
208.500 2.524111
209.500 2.482213
210.500 2.464032
211.500 2.448221
212.500 2.424506
213.500 2.378656
214.500 2.369960
215.500 2.347826
216.500 2.298024
217.500 2.280632
218.500 2.261660
219.500 2.266403
220.500 2.225296
221.500 2.177866
222.500 2.160474
223.500 2.174704
224.500 2.135968
225.500 2.090119
226.500 2.070356
227.500 2.071146
228.500 2.060079
229.500 2.011858
230.500 2.006324
231.500 1.991304
232.500 1.871146
233.500 1.940711
234.500 1.881423
235.500 1.913043
236.500 1.856126
237.500 1.864822
238.500 1.792095
239.500 1.818972
240.500 1.795257
241.500 1.783399
242.500 1.797628
243.500 1.767589
244.500 1.766008
245.500 1.750988
246.500 1.726482
247.500 1.701976
248.500 1.691700
249.500 1.652964
250.500 1.689328
251.300 1.630830
251.800 1.633992
252.500 1.607905
253.500 1.594466
254.500 1.586561
255.500 1.604743
256.500 1.587352
257.500 1.595257
258.500 1.584980
259.500 1.566798
260.500 1.542292
261.500 1.520949
262.500 1.528063
263.500 1.526482
264.500 1.561265
265.500 1.554150
266.500 1.518577
267.500 1.521739
268.500 1.521739
269.500 1.487747
270.500 1.485375
271.500 1.454545
272.500 1.441107
273.500 1.444269
274.500 1.388933
275.500 1.394466
276.500 1.407905
277.500 1.420553
278.500 1.397628
279.500 1.271146
280.500 1.301976
281.500 1.396838
282.500 1.386561
283.500 1.370751
284.500 1.354150
285.500 1.318577
286.500 1.344664
287.500 1.336759
288.500 1.335178
289.500 1.329644
291.000 1.336759
293.000 1.312253
295.000 1.290119
297.000 1.282213
299.000 1.271146
301.000 1.257708
303.000 1.244269
305.000 1.231621
307.000 1.214229
309.000 1.200000
311.000 1.184980
313.000 1.169960
315.000 1.158103
317.000 1.149407
319.000 1.120158
321.000 1.119368
323.000 1.100395
325.000 1.102767
327.000 1.102767
329.000 1.092490
331.000 1.083794
332.200 1.000791
332.300 0.993676
332.400 0.988142
332.500 0.989723
332.600 0.983399
332.700 0.971542
332.800 0.978656
332.900 0.988933
333.000 1.001581
333.100 1.008696
333.200 1.003162
333.300 0.994466
333.400 0.980237
333.500 0.974704
333.600 0.964427
333.700 0.954150
333.800 0.957312
333.900 0.962846
334.000 0.965217
334.100 0.969960
334.200 0.968379
334.300 0.985771
334.400 1.003162
334.500 1.006324
334.600 1.005534
334.700 0.988933
334.800 0.964427
334.900 0.939130
335.000 0.928063
335.100 0.935968
335.200 0.943083
335.300 0.949407
335.400 0.954941
335.500 0.965217
335.600 0.967589
335.700 0.961265
335.800 0.939921
335.900 0.916206
336.000 0.901976
336.100 0.904348
336.200 0.923320
336.300 0.940711
336.400 0.951779
336.500 0.940711
336.600 0.928854
336.700 0.922530
336.800 0.917787
336.900 0.918577
337.000 0.910672
337.100 0.900395
337.200 0.889328
337.300 0.896443
337.400 0.913834
337.500 0.942292
337.600 0.959684
337.700 0.949407
337.800 0.932806
337.900 0.920949
338.000 0.925692
338.100 0.937549
338.200 0.947036
338.300 0.955731
338.400 0.958103
338.500 0.963636
338.600 0.960474
338.700 0.945455
338.800 0.935968
338.900 0.947036
339.000 0.962055
339.100 0.973123
339.200 0.966798
339.300 0.952569
339.400 0.960474
339.500 0.972332
339.600 0.984980
339.700 0.988142
339.800 0.988142
339.900 0.975494
340.000 0.962055
340.100 0.956522
340.200 0.939921
340.300 0.935178
340.400 0.931225
340.500 0.937549
340.600 0.933597
340.700 0.928854
340.800 0.927273
340.900 0.931225
341.000 0.943083
341.100 0.934387
341.200 0.932806
341.300 0.935968
341.400 0.943874
341.500 0.954150
341.600 0.957312
341.700 0.958103
341.800 0.963636
341.900 0.969960
342.000 0.974704
342.100 0.974704
342.200 0.962846
342.300 0.948617
342.400 0.943083
342.500 0.946245
342.600 0.952569
342.700 0.960474
342.800 0.973123
342.900 0.983399
343.000 0.982609
343.100 0.970751
343.200 0.958893
343.300 0.954150
343.400 0.962055
343.500 0.975494
343.600 0.979447
343.700 0.973123
343.800 0.965217
343.900 0.954150
344.000 0.941502
344.100 0.925692
344.200 0.918577
344.300 0.919368
344.400 0.924901
344.500 0.932016
344.600 0.947036
344.700 0.964427
344.800 0.980237
344.900 0.991304
345.000 0.968379
345.100 0.937549
345.200 0.917787
345.300 0.912253
345.400 0.923320
345.500 0.929644
345.600 0.928063
345.700 0.928063
345.800 0.924901
345.900 0.924111
346.000 0.916996
346.100 0.912253
346.200 0.919368
346.300 0.932806
346.400 0.930435
346.500 0.924901
346.600 0.926482
346.700 0.935968
346.800 0.946245
346.900 0.954941
347.000 0.961265
347.100 0.955731
347.200 0.946245
347.300 0.930435
347.400 0.919368
347.500 0.913043
347.600 0.913834
347.700 0.922530
347.800 0.928063
347.900 0.931225
348.000 0.940711
348.100 0.942292
348.200 0.933597
348.300 0.925692
348.400 0.924901
348.500 0.940711
348.600 0.956522
348.700 0.960474
348.800 0.957312
348.900 0.944664
349.000 0.932806
349.100 0.936759
349.200 0.949407
349.300 0.950988
349.400 0.945455
349.500 0.935178
349.600 0.926482
349.700 0.930435
349.800 0.932016
349.900 0.932016
350.000 0.921739
350.100 0.914625
350.200 0.920949
350.300 0.924111
350.400 0.921739
350.500 0.913834
350.600 0.908300
350.700 0.907510
350.800 0.906719
350.900 0.909881
351.000 0.913043
351.100 0.915415
351.200 0.913043
351.300 0.904348
351.400 0.902767
351.500 0.912253
351.600 0.928854
351.700 0.939130
351.800 0.940711
351.900 0.931225
352.000 0.924111
352.100 0.918577
352.200 0.913043
352.300 0.909091
352.400 0.905138
352.500 0.900395
352.600 0.905138
352.700 0.911462
352.800 0.920949
352.900 0.931225
353.000 0.941502
353.100 0.949407
353.200 0.949407
353.300 0.935178
353.400 0.921739
353.500 0.916206
353.600 0.925692
353.700 0.935178
353.800 0.939921
353.900 0.945455
354.000 0.947036
354.100 0.944664
354.200 0.945455
354.300 0.951779
354.400 0.957312
354.500 0.955731
354.600 0.953360
354.700 0.950198
354.800 0.949407
354.900 0.948617
355.000 0.950988
355.100 0.959684
355.200 0.959684
355.300 0.948617
355.400 0.937549
355.500 0.936759
355.600 0.943874
355.700 0.955731
355.800 0.961265
355.900 0.958893
356.000 0.953360
356.100 0.952569
356.200 0.951779
356.300 0.943874
356.400 0.930435
356.500 0.920158
356.600 0.918577
356.700 0.918577
356.800 0.918577
356.900 0.914625
357.000 0.905138
357.100 0.887747
357.200 0.879051
357.300 0.877470
357.400 0.879842
357.500 0.887747
357.600 0.896443
357.700 0.900395
357.800 0.902767
357.900 0.898814
358.000 0.893281
358.100 0.886166
358.200 0.879842
358.300 0.880632
358.400 0.877470
358.500 0.867984
358.600 0.854545
358.700 0.848221
358.800 0.852964
358.900 0.869565
359.000 0.885375
359.100 0.890909
359.200 0.888538
359.300 0.887747
359.400 0.890909
359.500 0.900395
359.600 0.907510
359.700 0.910672
359.800 0.913043
359.900 0.916206
360.000 0.918577
360.100 0.909881
360.200 0.903557
360.300 0.898024
360.400 0.898814
360.500 0.901976
360.600 0.901976
360.700 0.898024
360.800 0.895652
360.900 0.898814
361.000 0.900395
361.100 0.900395
361.200 0.902767
361.300 0.903557
361.400 0.907510
361.500 0.918577
361.600 0.922530
361.700 0.919368
361.800 0.911462
361.900 0.903557
362.000 0.907510
362.100 0.913834
362.200 0.923320
362.300 0.928063
362.400 0.929644
362.500 0.939921
362.600 0.954150
362.700 0.966008
362.800 0.960474
362.900 0.943874
363.000 0.922530
363.100 0.909091
363.200 0.913043
363.300 0.928854
363.400 0.939921
363.500 0.936759
363.600 0.924111
363.700 0.922530
363.800 0.928854
363.900 0.934387
364.000 0.936759
364.100 0.933597
364.200 0.925692
364.300 0.916996
364.400 0.910672
364.500 0.910672
364.600 0.907510
364.700 0.907510
364.800 0.909091
364.900 0.907510
365.000 0.906719
365.100 0.908300
365.200 0.916206
365.300 0.923320
365.400 0.930435
365.500 0.938340
365.600 0.944664
365.700 0.946245
365.800 0.943874
365.900 0.942292
366.000 0.937549
366.100 0.930435
366.200 0.924111
366.300 0.922530
366.400 0.925692
366.500 0.929644
366.600 0.930435
366.700 0.926482
366.800 0.920158
366.900 0.916206
367.000 0.917787
367.100 0.921739
367.200 0.928854
367.300 0.931225
367.400 0.927273
367.500 0.919368
367.600 0.908300
367.700 0.898814
367.800 0.893281
367.900 0.895652
368.000 0.901976
368.100 0.907510
368.200 0.905929
368.300 0.903557
368.400 0.901976
368.500 0.894862
368.600 0.889328
368.700 0.890909
368.800 0.909881
368.900 0.932016
369.000 0.931225
369.100 0.917787
369.200 0.914625
369.300 0.926482
369.400 0.940711
369.500 0.943083
369.600 0.924111
369.700 0.907510
369.800 0.916206
369.900 0.950198
370.000 0.988933
370.100 0.989723
370.200 0.949407
370.300 0.886166
370.400 0.852174
370.500 0.852964
370.600 0.888538
370.700 0.930435
370.800 0.959684
370.900 0.947826
371.000 0.905138
371.100 0.864032
371.200 0.841897
371.300 0.864822
371.400 0.922530
371.500 0.993676
371.600 1.039526
371.700 1.062451
371.800 1.047431
371.900 0.987352
372.000 0.891700
372.100 0.824506
372.200 0.796838
372.300 0.830830
372.400 0.911462
372.500 0.991304
372.600 1.041107
372.700 1.081423
372.800 1.098814
372.900 1.102767
373.000 1.086166
373.100 1.033202
373.200 0.936759
373.300 0.848221
373.400 0.773360
373.500 0.759526
373.600 0.807115
373.700 0.896443
373.800 0.983399
373.900 1.082213
374.000 1.137549
374.100 1.173913
374.200 1.177075
374.300 1.164427
374.400 1.136759
374.500 1.098814
374.600 1.043478
374.700 0.976285
374.800 0.894071
374.900 0.808696
375.000 0.772174
375.100 0.786719
375.200 0.851383
375.300 0.953360
375.400 1.049012
375.500 1.109881
375.600 1.157312
375.700 1.169960
375.800 1.173913
375.900 1.174704
376.000 1.176285
376.100 1.184980
376.200 1.196047
376.300 1.189723
376.400 1.172332
376.500 1.133597
376.600 1.084585
376.700 1.023715
376.800 0.930435
376.900 0.843478
377.000 0.771067
377.100 0.756364
377.200 0.810277
377.300 0.905138
377.400 0.983399
377.500 1.060079
377.600 1.116206
377.700 1.169960
377.800 1.226087
377.900 1.266403
378.000 1.309091
378.100 1.331225
378.200 1.343874
378.300 1.346245
378.400 1.346245
378.500 1.341502
378.600 1.332806
378.700 1.311462
378.800 1.291700
378.900 1.271937
379.000 1.246640
379.100 1.218182
379.200 1.170751
379.300 1.116996
379.400 1.045850
379.500 0.950988
379.600 0.860079
379.700 0.766403
379.800 0.727115
379.900 0.758261
380.000 0.851383
380.100 0.952569
380.200 1.056917
380.300 1.117787
380.400 1.179447
380.500 1.218972
380.600 1.249802
380.700 1.284585
380.800 1.314625
380.900 1.350198
381.000 1.375494
381.100 1.390514
381.200 1.382609
381.300 1.368379
381.400 1.356522
381.500 1.357312
381.600 1.367589
381.700 1.377866
381.800 1.375494
381.900 1.350198
382.000 1.328854
382.100 1.319368
382.200 1.326482
382.300 1.323320
382.400 1.297233
382.500 1.267984
382.600 1.233992
382.700 1.207115
382.800 1.168379
382.900 1.125692
383.000 1.082213
383.100 1.015020
383.200 0.947826
383.300 0.848221
383.400 0.751621
383.500 0.701423
383.600 0.699526
383.700 0.751304
383.800 0.836364
383.900 0.920158
384.000 0.997628
384.100 1.079842
384.200 1.142292
384.300 1.210277
384.400 1.252964
384.500 1.291700
384.600 1.324111
384.700 1.350198
384.800 1.369960
384.900 1.377075
385.000 1.385771
385.100 1.403162
385.200 1.424506
385.300 1.441107
385.400 1.442688
385.500 1.435573
385.600 1.425296
385.700 1.421344
385.800 1.422134
385.900 1.430040
386.000 1.442688
386.100 1.453755
386.200 1.453755
386.300 1.441107
386.400 1.434783
386.500 1.430830
386.600 1.433992
386.700 1.439526
386.800 1.444269
386.900 1.441897
387.000 1.426877
387.100 1.409486
387.200 1.383399
387.300 1.369960
387.400 1.365217
387.500 1.365217
387.600 1.355731
387.700 1.325692
387.800 1.298814
387.900 1.274308
388.000 1.260079
388.100 1.239526
388.200 1.197628
388.300 1.155731
388.400 1.094071
388.500 1.024506
388.600 0.936759
388.700 0.826087
388.800 0.744743
388.900 0.707826
389.000 0.741344
389.100 0.829249
389.200 0.930435
389.300 1.003953
389.400 1.073518
389.500 1.120949
389.600 1.175494
389.700 1.218972
389.800 1.250593
389.900 1.276680
390.000 1.294862
390.100 1.324111
390.200 1.348617
390.300 1.368379
390.400 1.376285
390.500 1.380237
390.600 1.392885
390.700 1.414229
390.800 1.445059
390.900 1.471146
391.000 1.484585
391.100 1.489328
391.200 1.485375
391.300 1.475099
391.400 1.464032
391.500 1.466403
391.600 1.477470
391.700 1.480632
391.800 1.478261
391.900 1.471146
392.000 1.470356
392.100 1.472727
392.200 1.471937
392.300 1.472727
392.400 1.471146
392.500 1.471937
392.600 1.459289
392.700 1.441897
392.800 1.413439
392.900 1.381028
393.000 1.338340
393.100 1.264822
393.200 1.155731
393.300 1.047431
393.400 1.031621
393.500 1.111462
393.600 1.223715
393.700 1.317787
393.800 1.386561
393.900 1.421344
394.000 1.441897
394.100 1.456126
394.200 1.459289
394.300 1.455336
394.400 1.449802
394.500 1.442688
394.600 1.440316
394.700 1.438735
394.800 1.432411
394.900 1.423715
395.000 1.416601
395.100 1.407905
395.200 1.399209
395.300 1.397628
395.400 1.392095
395.500 1.377075
395.600 1.358103
395.700 1.335178
395.800 1.323320
395.900 1.304348
396.000 1.272727
396.100 1.234783
396.200 1.183399
396.300 1.139921
396.400 1.080632
396.500 1.000000
396.600 0.895652
396.700 0.749723
396.800 0.632964
396.900 0.560395
397.000 0.569249
397.100 0.643320
397.200 0.756759
397.300 0.857708
397.400 0.961265
397.500 1.033202
397.600 1.102767
397.700 1.157312
397.800 1.198419
397.900 1.244269
398.000 1.269565
398.100 1.294862
398.200 1.314625
398.300 1.333597
398.400 1.356522
398.500 1.374704
398.600 1.389723
398.700 1.399209
398.800 1.419763
398.900 1.430040
399.000 1.436364
399.100 1.445850
399.200 1.451383
399.300 1.461660
399.400 1.466403
399.500 1.468775
399.600 1.462451
399.700 1.455336
399.800 1.455336
399.900 1.465613
400.000 1.470356
400.100 1.472727
400.200 1.472727
400.300 1.466403
400.400 1.460870
400.500 1.455336
400.600 1.457708
400.700 1.466403
400.800 1.478261
400.900 1.484585
401.000 1.486957
401.100 1.487747
401.200 1.487747
401.300 1.487747
401.400 1.488538
401.500 1.494071
401.600 1.501186
401.700 1.509091
401.800 1.516996
401.900 1.520949
402.000 1.521739
402.100 1.517787
402.200 1.510672
402.300 1.498024
402.400 1.481423
402.500 1.470356
402.600 1.469565
402.700 1.483004
402.800 1.494071
402.900 1.498814
403.000 1.496443
403.100 1.492490
403.200 1.492490
403.300 1.493281
403.400 1.499605
403.500 1.511462
403.600 1.523320
403.700 1.535178
403.800 1.535968
403.900 1.529644
404.000 1.524111
404.100 1.520949
404.200 1.520949
404.300 1.515415
404.400 1.496443
404.500 1.477470
404.600 1.468775
404.700 1.483004
404.800 1.501976
404.900 1.514625
405.000 1.516206
405.100 1.516996
405.200 1.514625
405.300 1.505138
405.400 1.495652
405.500 1.495652
405.600 1.498024
405.700 1.501976
405.800 1.504348
405.900 1.510672
406.000 1.513834
406.100 1.505138
406.200 1.485375
406.300 1.466403
406.400 1.453755
406.500 1.436364
406.600 1.437154
406.700 1.441107
406.800 1.441107
406.900 1.440316
407.000 1.430830
407.100 1.411067
407.200 1.401581
407.300 1.403162
407.400 1.409486
407.500 1.408696
407.600 1.391304
407.700 1.376285
407.800 1.367589
407.900 1.376285
408.000 1.389723
408.100 1.393676
408.200 1.391304
408.300 1.381028
408.400 1.369170
408.500 1.355731
408.600 1.346245
408.700 1.341502
408.800 1.333597
408.900 1.325692
409.000 1.305138
409.100 1.286957
409.200 1.267984
409.300 1.236364
409.400 1.206324
409.500 1.158103
409.600 1.112253
409.700 1.059289
409.800 0.988142
409.900 0.910672
410.000 0.804743
410.100 0.729802
410.200 0.707352
410.300 0.761186
410.400 0.851383
410.500 0.951779
410.600 1.015810
410.700 1.075099
410.800 1.118577
410.900 1.154150
411.000 1.192095
411.100 1.218182
411.200 1.249012
411.300 1.271937
411.400 1.294862
411.500 1.316996
411.600 1.332016
411.700 1.339921
411.800 1.339921
411.900 1.341502
412.000 1.345455
412.100 1.353360
412.200 1.362055
412.300 1.371542
412.400 1.383399
412.500 1.392885
412.600 1.392885
412.700 1.387352
412.800 1.382609
412.900 1.381818
413.000 1.380237
413.100 1.378656
413.200 1.379447
413.300 1.386561
413.400 1.403162
413.500 1.415020
413.600 1.423715
413.700 1.431621
413.800 1.440316
413.900 1.448221
414.000 1.446640
414.100 1.436364
414.200 1.422134
414.300 1.407115
414.400 1.405534
414.500 1.412648
414.600 1.425296
414.700 1.430830
414.800 1.432411
414.900 1.433202
415.000 1.437154
415.100 1.441897
415.200 1.441107
415.300 1.436364
415.400 1.430830
