# Wavelength (nm)   F_lamA (normalized erg/cm2/s/A)9.100 0.000606
9.400 0.000690
9.600 0.000749
9.800 0.000811
10.000 0.000874
10.200 0.000939
10.400 0.001006
10.600 0.001076
10.800 0.001147
11.000 0.001221
11.400 0.001377
11.800 0.001544
12.100 0.001680
12.500 0.001876
12.700 0.001984
12.800 0.002041
13.100 0.002224
13.200 0.002290
13.400 0.002430
13.700 0.002663
14.000 0.002930
14.300 0.003240
14.700 0.003732
15.100 0.004336
15.500 0.005077
15.900 0.005987
16.200 0.006797
16.600 0.008077
17.000 0.009619
17.300 0.010971
17.700 0.013065
18.000 0.014876
18.200 0.016207
18.600 0.019192
19.100 0.023566
19.400 0.026576
19.800 0.031066
20.200 0.036105
20.500 0.040296
21.000 0.048079
21.600 0.058773
22.000 0.066772
22.300 0.073241
22.700 0.082505
23.000 2.566107
23.400 2.823882
24.000 3.637120
24.600 4.965907
25.200 6.063529
25.700 4.694828
26.000 6.695493
26.400 8.448362
26.900 8.598038
27.400 8.729420
27.900 8.393481
28.400 8.829203
29.000 8.784301
29.600 8.075836
30.100 5.602860
30.800 6.958257
31.800 8.657908
32.800 8.677865
33.800 8.506569
34.800 8.350241
35.700 8.468319
36.600 8.566439
37.500 8.423416
38.500 7.974389
39.500 8.175619
40.500 8.187261
41.400 8.075836
42.200 7.871279
43.000 7.738234
44.100 7.748212
45.100 7.616830
46.000 7.408947
47.000 7.277565
48.000 7.211043
49.000 6.983203
50.000 6.963246
50.600 7.488774
51.200 8.870780
52.000 8.697821
53.000 8.541493
54.000 8.092466
55.000 7.994346
56.000 8.207218
57.000 8.099119
58.000 7.846333
59.000 7.809746
60.000 7.580243
61.000 7.365708
62.000 7.440545
63.000 7.282554
64.000 7.204390
65.000 7.043073
65.800 6.866789
66.500 6.878430
67.500 6.803592
68.500 6.557459
69.500 6.569100
70.500 6.316315
71.600 6.351239
72.600 6.258107
73.500 6.173291
74.500 6.041909
75.500 5.932147
76.500 5.782471
77.500 5.730916
78.500 5.631133
79.500 5.544653
80.500 5.473142
81.500 5.394978
82.500 5.325129
83.500 5.102278
84.500 5.147181
85.500 5.055713
86.500 5.004158
87.500 4.929320
88.500 4.851156
89.500 4.772992
90.500 4.668219
91.500 4.985864
92.500 8.657908
93.500 12.100449
94.500 17.728255
95.500 20.239481
96.500 23.565608
97.500 14.318976
98.500 24.912689
99.500 24.496923
100.500 25.311824
101.500 22.534509
102.500 13.101613
103.500 20.671878
104.500 24.214203
105.500 24.397140
106.500 23.232995
107.500 23.582238
108.500 22.018959
109.500 22.950274
110.500 22.168635
111.500 21.769499
112.500 20.738400
113.500 20.937968
114.500 20.139697
115.500 19.890238
116.500 19.524364
117.500 17.495427
118.500 18.127391
119.500 16.680526
120.500 14.651588
121.500 8.945618
122.500 13.981374
123.500 15.672709
124.500 15.985365
125.500 16.058540
126.500 15.705970
127.500 15.822385
128.500 15.672709
129.500 15.085648
130.500 14.812905
131.500 14.939298
132.500 14.563446
133.500 14.170963
134.500 14.197572
135.500 13.943123
136.500 13.620489
137.500 13.395975
138.500 13.229669
139.500 12.597705
140.500 12.356561
141.500 12.536172
142.500 12.300017
143.500 12.108764
144.200 12.013970
144.700 11.910860
145.500 11.734575
146.500 11.503409
147.500 11.323798
148.500 11.140861
149.500 10.937968
150.500 10.741726
151.200 10.587061
151.700 10.532180
152.500 10.345917
153.500 10.023283
154.500 9.835357
155.500 9.625811
156.500 9.540995
157.500 9.486113
158.500 9.387993
159.500 9.288209
160.500 9.003825
161.500 8.867454
162.500 8.701148
163.500 8.559787
164.500 8.313654
165.500 8.297023
166.500 8.300349
167.200 8.070846
167.700 8.139032
168.500 8.069183
169.500 7.911192
170.500 7.759854
171.500 7.613504
172.500 7.498753
173.500 7.475470
174.500 7.327457
175.500 7.262598
176.500 7.049726
177.500 7.043073
178.500 6.938300
179.500 6.871778
180.500 6.785299
181.500 6.667221
182.500 6.575753
183.500 6.482621
184.500 6.324630
185.500 6.203226
186.500 6.141693
187.500 6.115084
188.500 5.972061
189.500 5.853983
190.500 5.847331
191.500 5.715949
192.500 5.631133
193.500 5.587893
194.500 5.566273
195.500 5.426576
196.700 5.406619
197.600 5.358390
198.400 5.273574
199.500 5.155496
200.500 5.130550
201.500 5.067354
202.500 5.019125
203.500 4.947614
204.500 4.887743
205.500 4.518543
206.500 4.566772
207.400 4.736404
207.800 4.688176
208.500 4.669882
209.500 4.590055
210.500 4.556794
211.500 4.518543
212.500 4.470314
213.500 4.395476
214.500 4.353900
215.500 4.313986
216.500 4.227507
217.500 4.190920
218.500 4.137702
219.500 4.126060
220.500 4.056212
221.500 3.978048
222.500 3.936471
223.500 3.929819
224.500 3.868285
225.500 3.793448
226.500 3.761849
227.500 3.738566
228.500 3.705305
229.500 3.625478
230.500 3.598869
231.500 3.568934
232.500 3.366040
233.500 3.477465
234.500 3.395975
235.500 3.405954
236.500 3.331116
237.500 3.321138
238.500 3.224680
239.500 3.241310
240.500 3.199734
241.500 3.169799
242.500 3.161483
243.500 3.111592
244.500 3.091635
245.500 3.063363
246.500 3.018460
247.500 2.983536
248.500 2.965242
249.500 2.890404
250.500 2.920339
251.300 2.837186
251.800 2.863795
252.500 2.823882
253.500 2.787294
254.500 2.765674
255.500 2.767337
256.500 2.734076
257.500 2.724098
258.500 2.700815
259.500 2.669217
260.500 2.634292
261.500 2.602694
262.500 2.589390
263.500 2.571096
264.500 2.589390
265.500 2.564444
266.500 2.522867
267.500 2.511226
268.500 2.497921
269.500 2.456345
270.500 2.443040
271.500 2.408116
272.500 2.378181
273.500 2.364876
274.500 2.311658
275.500 2.300017
276.500 2.295027
277.500 2.300017
278.500 2.271745
279.500 2.170298
280.500 2.185265
281.500 2.230168
282.500 2.203559
283.500 2.180276
284.500 2.161982
285.500 2.133710
286.500 2.132047
287.500 2.112090
288.500 2.100449
289.500 2.085481
291.000 2.070514
293.000 2.030600
295.000 1.990687
297.000 1.969067
299.000 1.939132
301.000 1.909197
303.000 1.875935
305.000 1.844337
307.000 1.811076
309.000 1.782804
311.000 1.751206
313.000 1.721271
315.000 1.692999
317.000 1.668053
319.000 1.627973
321.000 1.610511
323.000 1.583902
325.000 1.565774
327.000 1.547480
329.000 1.524696
331.000 1.504075
332.200 1.458673
332.300 1.470813
332.400 1.465325
332.500 1.458008
332.600 1.443872
332.700 1.428571
332.800 1.434060
332.900 1.442541
333.000 1.450690
333.100 1.453185
333.200 1.446533
333.300 1.433727
333.400 1.421587
333.500 1.416930
333.600 1.405289
333.700 1.389822
333.800 1.385165
333.900 1.389323
334.000 1.388658
334.100 1.396474
334.200 1.397805
334.300 1.420589
334.400 1.441377
334.500 1.449027
334.600 1.456345
334.700 1.452187
334.800 1.427906
334.900 1.390155
335.000 1.347248
335.100 1.350906
335.200 1.372526
335.300 1.384999
335.400 1.385165
335.500 1.376684
335.600 1.376351
335.700 1.380675
335.800 1.376684
335.900 1.367038
336.000 1.363546
336.100 1.358390
336.200 1.369865
336.300 1.371362
336.400 1.371029
336.500 1.358390
336.600 1.345252
336.700 1.336438
336.800 1.330118
336.900 1.332280
337.000 1.344088
337.100 1.345917
337.200 1.331615
337.300 1.330284
337.400 1.339764
337.500 1.366705
337.600 1.382837
337.700 1.363546
337.800 1.345252
337.900 1.334775
338.000 1.343755
338.100 1.360552
338.200 1.378014
338.300 1.390487
338.400 1.388325
338.500 1.388159
338.600 1.384334
338.700 1.376684
338.800 1.373025
338.900 1.375520
339.000 1.382671
339.100 1.390321
339.200 1.389656
339.300 1.382837
339.400 1.392649
339.500 1.401630
339.600 1.407783
339.700 1.401297
339.800 1.393148
339.900 1.366373
340.000 1.343755
340.100 1.346582
340.200 1.333943
340.300 1.332114
340.400 1.332613
340.500 1.336438
340.600 1.326459
340.700 1.323300
340.800 1.333278
340.900 1.341760
341.000 1.346582
341.100 1.330617
341.200 1.333112
341.300 1.349576
341.400 1.364876
341.500 1.367371
341.600 1.365209
341.700 1.363546
341.800 1.369533
341.900 1.377682
342.000 1.380176
342.100 1.379178
342.200 1.370198
342.300 1.362548
342.400 1.358224
342.500 1.356893
342.600 1.363047
342.700 1.369366
342.800 1.376518
342.900 1.381008
343.000 1.369034
343.100 1.363047
343.200 1.359388
343.300 1.363047
343.400 1.369034
343.500 1.372526
343.600 1.375520
343.700 1.374854
343.800 1.374023
343.900 1.365042
344.000 1.346416
344.100 1.329287
344.200 1.323133
344.300 1.326792
344.400 1.331116
344.500 1.333943
344.600 1.344254
344.700 1.355064
344.800 1.372194
344.900 1.384001
345.000 1.353235
345.100 1.317479
345.200 1.299019
345.300 1.292200
345.400 1.302678
345.500 1.304840
345.600 1.301846
345.700 1.301014
345.800 1.296857
345.900 1.297688
346.000 1.295027
346.100 1.293531
346.200 1.299185
346.300 1.320639
346.400 1.310993
346.500 1.308166
346.600 1.311492
346.700 1.313487
346.800 1.314485
346.900 1.316814
347.000 1.324796
347.100 1.321304
347.200 1.314485
347.300 1.306004
347.400 1.302678
347.500 1.297356
347.600 1.296192
347.700 1.289207
347.800 1.279894
347.900 1.275403
348.000 1.285215
348.100 1.293863
348.200 1.285049
348.300 1.272742
348.400 1.272410
348.500 1.293863
348.600 1.313820
348.700 1.322967
348.800 1.327790
348.900 1.320140
349.000 1.309330
349.100 1.308332
349.200 1.318310
349.300 1.321470
349.400 1.315483
349.500 1.303509
349.600 1.296025
349.700 1.301014
349.800 1.307334
349.900 1.307168
350.000 1.287710
350.100 1.275403
350.200 1.281224
350.300 1.284883
350.400 1.277732
350.500 1.265591
350.600 1.259438
350.700 1.261101
350.800 1.267587
350.900 1.270580
351.000 1.274572
351.100 1.277565
351.200 1.275403
351.300 1.265092
351.400 1.259604
351.500 1.266589
351.600 1.276900
351.700 1.281390
351.800 1.284218
351.900 1.282887
352.000 1.281557
352.100 1.277233
352.200 1.271246
352.300 1.271412
352.400 1.274738
352.500 1.273241
352.600 1.275403
352.700 1.275237
352.800 1.278397
352.900 1.285714
353.000 1.294362
353.100 1.301513
353.200 1.306835
353.300 1.299518
353.400 1.285049
353.500 1.278563
353.600 1.279395
353.700 1.276069
353.800 1.276900
353.900 1.280891
354.000 1.286878
354.100 1.288209
354.200 1.288541
354.300 1.290205
354.400 1.293697
354.500 1.295526
354.600 1.296857
354.700 1.300183
354.800 1.303176
354.900 1.298686
355.000 1.295027
355.100 1.298852
355.200 1.302012
355.300 1.299518
355.400 1.289872
355.500 1.285215
355.600 1.288043
355.700 1.295693
355.800 1.298021
355.900 1.293032
356.000 1.286712
356.100 1.289539
356.200 1.293697
356.300 1.289872
356.400 1.279561
356.500 1.272576
356.600 1.271911
356.700 1.269915
356.800 1.272410
356.900 1.267753
357.000 1.255945
357.100 1.230501
357.200 1.215533
357.300 1.212706
357.400 1.213371
357.500 1.218028
357.600 1.225844
357.700 1.226676
357.800 1.224181
357.900 1.220356
358.000 1.220522
358.100 1.220356
358.200 1.216365
358.300 1.215200
358.400 1.214203
358.500 1.208049
358.600 1.199235
358.700 1.194246
358.800 1.192084
358.900 1.199235
359.000 1.209546
359.100 1.212041
359.200 1.209879
359.300 1.211043
359.400 1.213038
359.500 1.217030
359.600 1.219358
359.700 1.222352
359.800 1.227673
359.900 1.232663
360.000 1.236321
360.100 1.231498
360.200 1.229503
360.300 1.223017
360.400 1.218360
360.500 1.218693
360.600 1.221686
360.700 1.222352
360.800 1.225012
360.900 1.230002
361.000 1.232164
361.100 1.228172
361.200 1.225844
361.300 1.223183
361.400 1.222518
361.500 1.224846
361.600 1.229669
361.700 1.233993
361.800 1.236654
361.900 1.237818
362.000 1.234326
362.100 1.234658
362.200 1.245468
362.300 1.250457
362.400 1.247963
362.500 1.251788
362.600 1.260436
362.700 1.268585
362.800 1.266256
362.900 1.255447
363.000 1.245302
363.100 1.238650
363.200 1.239315
363.300 1.248794
363.400 1.262431
363.500 1.260768
363.600 1.238483
363.700 1.226010
363.800 1.227507
363.900 1.232164
364.000 1.234658
364.100 1.234159
364.200 1.231332
364.300 1.224181
364.400 1.217362
364.500 1.218028
364.600 1.214369
364.700 1.214868
364.800 1.217196
364.900 1.216697
365.000 1.216863
365.100 1.216697
365.200 1.219524
365.300 1.221853
365.400 1.223516
365.500 1.225345
365.600 1.229503
365.700 1.228339
365.800 1.226842
365.900 1.224347
366.000 1.216198
366.100 1.212539
366.200 1.209380
366.300 1.213371
366.400 1.216863
366.500 1.216365
366.600 1.214868
366.700 1.209380
366.800 1.205721
366.900 1.207218
367.000 1.210876
367.100 1.212373
367.200 1.215699
367.300 1.213205
367.400 1.207883
367.500 1.198570
367.600 1.191918
367.700 1.188425
367.800 1.186263
367.900 1.188591
368.000 1.192416
368.100 1.198570
368.200 1.196241
368.300 1.192416
368.400 1.190587
368.500 1.185265
368.600 1.177615
368.700 1.176617
368.800 1.193581
368.900 1.215866
369.000 1.215699
369.100 1.196075
369.200 1.195909
369.300 1.212706
369.400 1.231166
369.500 1.230168
369.600 1.200898
369.700 1.184101
369.800 1.189922
369.900 1.230002
370.000 1.275570
370.100 1.280226
370.200 1.240645
370.300 1.167803
370.400 1.130717
370.500 1.130883
370.600 1.180609
370.700 1.233494
370.800 1.273740
370.900 1.254948
371.000 1.198736
371.100 1.141859
371.200 1.108764
371.300 1.129553
371.400 1.192250
371.500 1.287377
371.600 1.346582
371.700 1.380176
371.800 1.368867
371.900 1.303509
372.000 1.190254
372.100 1.116913
372.200 1.074173
372.300 1.106602
372.400 1.189922
372.500 1.294362
372.600 1.357060
372.700 1.418094
372.800 1.443539
372.900 1.448694
373.000 1.424913
373.100 1.356228
373.200 1.239980
373.300 1.140030
373.400 1.051888
373.500 1.035756
373.600 1.088142
373.700 1.198403
373.800 1.300848
373.900 1.423416
374.000 1.491934
374.100 1.541327
374.200 1.555297
374.300 1.544820
374.400 1.516381
374.500 1.470980
374.600 1.394645
374.700 1.298187
374.800 1.191419
374.900 1.071512
375.000 1.025112
375.100 1.039415
375.200 1.121237
375.300 1.232829
375.400 1.354731
375.500 1.433561
375.600 1.507068
375.700 1.535506
375.800 1.549975
375.900 1.551472
376.000 1.548312
376.100 1.549310
376.200 1.565109
376.300 1.559122
376.400 1.536172
376.500 1.484949
376.600 1.414934
376.700 1.337269
376.800 1.219358
376.900 1.104939
377.000 1.014635
377.100 0.982205
377.200 1.043739
377.300 1.160652
377.400 1.263263
377.500 1.368036
377.600 1.450025
377.700 1.520206
377.800 1.590387
377.900 1.635290
378.000 1.681357
378.100 1.706303
378.200 1.726260
378.300 1.731249
378.400 1.732912
378.500 1.734575
378.600 1.726260
378.700 1.707966
378.800 1.688009
378.900 1.660735
379.000 1.623316
379.100 1.582072
379.200 1.519375
379.300 1.450524
379.400 1.363047
379.500 1.239647
379.600 1.125561
379.700 1.008814
379.800 0.955264
379.900 0.986363
380.000 1.095959
380.100 1.215533
380.200 1.346915
380.300 1.430900
380.400 1.511226
380.500 1.571096
380.600 1.611841
380.700 1.656078
380.800 1.689672
380.900 1.729586
381.000 1.759521
381.100 1.777815
381.200 1.774489
381.300 1.764510
381.400 1.752869
381.500 1.754532
381.600 1.757858
381.700 1.757858
381.800 1.747880
381.900 1.722934
382.000 1.702977
382.100 1.694662
382.200 1.706303
382.300 1.706303
382.400 1.684683
382.500 1.653917
382.600 1.613338
382.700 1.582238
382.800 1.537169
382.900 1.480126
383.000 1.420090
383.100 1.333611
383.200 1.245302
383.300 1.125229
383.400 0.994179
383.500 0.930318
383.600 0.921004
383.700 0.987693
383.800 1.094961
383.900 1.209380
384.000 1.307334
384.100 1.410444
384.200 1.481623
384.300 1.558789
384.400 1.608515
384.500 1.655081
384.600 1.691335
384.700 1.716281
384.800 1.737901
384.900 1.749543
385.000 1.761184
385.100 1.779478
385.200 1.794445
385.300 1.802761
385.400 1.801098
385.500 1.794445
385.600 1.787793
385.700 1.789456
385.800 1.802761
385.900 1.817728
386.000 1.827707
386.100 1.829370
386.200 1.816065
386.300 1.786130
386.400 1.781141
386.500 1.781141
386.600 1.787793
386.700 1.796108
386.800 1.801098
386.900 1.801098
387.000 1.789456
387.100 1.772826
387.200 1.747880
387.300 1.736238
387.400 1.732912
387.500 1.732912
387.600 1.721271
387.700 1.692999
387.800 1.668053
387.900 1.639115
388.000 1.615832
388.100 1.581573
388.200 1.527191
388.300 1.473142
388.400 1.399468
388.500 1.311824
388.600 1.204058
388.700 1.064028
388.800 0.959089
388.900 0.904374
389.000 0.937801
389.100 1.040579
389.200 1.174123
389.300 1.275902
389.400 1.373191
389.500 1.437718
389.600 1.502744
389.700 1.558290
389.800 1.595543
389.900 1.626476
390.000 1.647431
390.100 1.679694
390.200 1.712955
390.300 1.737901
390.400 1.749543
390.500 1.754532
390.600 1.761184
390.700 1.777815
390.800 1.804424
390.900 1.832696
391.000 1.844337
391.100 1.849326
391.200 1.844337
391.300 1.829370
391.400 1.819391
391.500 1.822717
391.600 1.834359
391.700 1.841011
391.800 1.841011
391.900 1.832696
392.000 1.832696
392.100 1.836022
392.200 1.832696
392.300 1.826044
392.400 1.822717
392.500 1.827707
392.600 1.822717
392.700 1.816065
392.800 1.797771
392.900 1.777815
393.000 1.756195
393.100 1.704640
393.200 1.606852
393.300 1.488941
393.400 1.472144
393.500 1.543988
393.600 1.645102
393.700 1.717944
393.800 1.767836
393.900 1.792782
394.000 1.811076
394.100 1.824381
394.200 1.826044
394.300 1.817728
394.400 1.807750
394.500 1.791119
394.600 1.782804
394.700 1.781141
394.800 1.777815
394.900 1.771162
395.000 1.762847
395.100 1.751206
395.200 1.741227
395.300 1.736238
395.400 1.731249
395.500 1.714618
395.600 1.694662
395.700 1.669716
395.800 1.653917
395.900 1.632629
396.000 1.599701
396.100 1.560452
396.200 1.506735
396.300 1.459671
396.400 1.391485
396.500 1.308498
396.600 1.200399
396.700 1.037585
396.800 0.892566
396.900 0.791951
397.000 0.773990
397.100 0.837519
397.200 0.958091
397.300 1.077665
397.400 1.202727
397.500 1.294196
397.600 1.376684
397.700 1.442874
397.800 1.485781
397.900 1.537668
398.000 1.569932
398.100 1.602694
398.200 1.626310
398.300 1.644603
398.400 1.668053
398.500 1.688009
398.600 1.699651
398.700 1.702977
398.800 1.724597
398.900 1.736238
399.000 1.746217
399.100 1.756195
399.200 1.761184
399.300 1.767836
399.400 1.772826
399.500 1.776152
399.600 1.774489
399.700 1.769499
399.800 1.769499
399.900 1.774489
400.000 1.769499
400.100 1.764510
400.200 1.762847
400.300 1.759521
400.400 1.757858
400.500 1.757858
400.600 1.761184
400.700 1.762847
400.800 1.767836
400.900 1.769499
401.000 1.769499
401.100 1.771162
401.200 1.776152
401.300 1.779478
401.400 1.779478
401.500 1.782804
401.600 1.791119
401.700 1.801098
401.800 1.809413
401.900 1.814402
402.000 1.812739
402.100 1.807750
402.200 1.796108
402.300 1.776152
402.400 1.749543
402.500 1.726260
402.600 1.719608
402.700 1.734575
402.800 1.754532
402.900 1.772826
403.000 1.784467
403.100 1.787793
403.200 1.791119
403.300 1.792782
403.400 1.796108
403.500 1.804424
403.600 1.811076
403.700 1.816065
403.800 1.817728
403.900 1.812739
404.000 1.811076
404.100 1.811076
404.200 1.807750
404.300 1.802761
404.400 1.789456
404.500 1.774489
404.600 1.767836
404.700 1.776152
404.800 1.787793
404.900 1.797771
405.000 1.799435
405.100 1.799435
405.200 1.797771
405.300 1.787793
405.400 1.781141
405.500 1.784467
405.600 1.787793
405.700 1.792782
405.800 1.792782
405.900 1.794445
406.000 1.794445
406.100 1.784467
406.200 1.771162
406.300 1.759521
406.400 1.742890
406.500 1.709629
406.600 1.706303
406.700 1.712955
406.800 1.712955
406.900 1.712955
407.000 1.704640
407.100 1.688009
407.200 1.681357
407.300 1.678031
407.400 1.681357
407.500 1.681357
407.600 1.668053
407.700 1.655912
407.800 1.648761
407.900 1.654748
408.000 1.664726
408.100 1.666389
408.200 1.662897
408.300 1.653085
408.400 1.640778
408.500 1.627141
408.600 1.613338
408.700 1.606353
408.800 1.596042
408.900 1.587061
409.000 1.565442
409.100 1.543156
409.200 1.517878
409.300 1.478463
409.400 1.441543
409.500 1.385165
409.600 1.328122
409.700 1.261932
409.800 1.172626
409.900 1.076834
410.000 0.958091
410.100 0.865957
410.200 0.837186
410.300 0.889905
410.400 0.995011
410.500 1.117412
410.600 1.202395
410.700 1.277399
410.800 1.335772
410.900 1.380010
411.000 1.424414
411.100 1.456178
411.200 1.491269
411.300 1.517712
411.400 1.543489
411.500 1.567604
411.600 1.586396
411.700 1.595543
411.800 1.595377
411.900 1.597705
412.000 1.600698
412.100 1.606187
412.200 1.612174
412.300 1.620822
412.400 1.633960
412.500 1.645934
412.600 1.641776
412.700 1.629636
412.800 1.618826
412.900 1.613338
413.000 1.613171
413.100 1.619158
413.200 1.627308
413.300 1.638450
413.400 1.655746
413.500 1.664726
413.600 1.673042
413.700 1.678031
413.800 1.686346
413.900 1.691335
414.000 1.691335
414.100 1.683020
414.200 1.669716
414.300 1.656910
414.400 1.650757
414.500 1.656910
414.600 1.669716
414.700 1.676368
414.800 1.678031
414.900 1.676368
415.000 1.681357
415.100 1.686346
