# Wavelength (nm)   F_lamA (normalized erg/cm2/s/A)9.100 0.000494
9.400 0.000565
9.600 0.000615
9.800 0.000667
10.000 0.000723
10.200 0.000782
10.400 0.000844
10.600 0.000910
10.800 0.000980
11.000 0.001054
11.400 0.001216
11.800 0.001399
12.100 0.001553
12.500 0.001783
12.700 0.001911
12.800 0.001977
13.100 0.002192
13.200 0.002269
13.400 0.002430
13.700 0.002693
14.000 0.002983
14.300 0.003305
14.700 0.003786
15.100 0.004334
15.500 0.004957
15.900 0.005662
16.200 0.006250
16.600 0.007119
17.000 0.008097
17.300 0.008902
17.700 0.010080
18.000 0.011051
18.200 0.011737
18.600 0.013220
19.100 0.015283
19.400 0.016633
19.800 0.018570
20.200 0.020679
20.500 0.022369
21.000 0.025409
21.600 0.029421
22.000 0.032322
22.300 0.034624
22.700 0.037844
23.000 0.755156
23.400 0.836993
24.000 1.056554
24.600 1.404524
25.200 1.751164
25.700 1.403194
26.000 1.935462
26.400 2.427146
26.900 2.499667
27.400 2.548237
27.900 2.389887
28.400 2.620758
29.000 2.617432
29.600 2.369927
30.100 1.563540
30.800 1.918829
31.800 2.451098
32.800 2.456420
33.800 2.387891
34.800 2.327345
35.700 2.397206
36.600 2.497671
37.500 2.449102
38.500 2.269461
39.500 2.383234
40.500 2.419827
41.400 2.389887
42.200 2.317365
43.000 2.263473
44.100 2.300067
45.100 2.270792
46.000 2.192282
47.000 2.154358
48.000 2.151031
49.000 2.065203
50.000 2.085828
50.600 2.264138
51.200 2.839654
52.000 2.763806
53.000 2.690619
54.000 2.507651
55.000 2.472389
56.000 2.618762
57.000 2.595476
58.000 2.504990
59.000 2.502329
60.000 2.408516
61.000 2.340652
62.000 2.413174
63.000 2.353959
64.000 2.343313
65.000 2.286760
65.800 2.220892
66.500 2.242182
67.500 2.230206
68.500 2.129741
69.500 2.156354
70.500 2.049900
71.600 2.098470
72.600 2.072522
73.500 2.049900
74.500 2.002661
75.500 1.966733
76.500 1.909514
77.500 1.904192
78.500 1.872921
79.500 1.850299
80.500 1.829009
81.500 1.808383
82.500 1.789088
83.500 1.691284
84.500 1.733200
85.500 1.703260
86.500 1.691949
87.500 1.669993
88.500 1.645376
89.500 1.621424
90.500 1.586161
91.500 1.638057
92.500 3.109115
93.500 4.406520
94.500 6.349967
95.500 7.265469
96.500 8.423154
97.500 4.946773
98.500 8.822355
99.500 8.616101
100.500 8.988689
101.500 8.070526
102.500 4.746507
103.500 7.332003
104.500 8.809049
105.500 8.862275
106.500 8.349967
107.500 8.569528
108.500 7.970725
109.500 8.383234
110.500 8.083832
111.500 7.950765
112.500 7.538257
113.500 7.697937
114.500 7.365269
115.500 7.292083
116.500 7.185629
117.500 6.316035
118.500 6.650699
119.500 6.041916
120.500 5.268796
121.500 3.242182
122.500 5.067864
123.500 5.775782
124.500 5.932801
125.500 5.957418
126.500 5.796407
127.500 5.927478
128.500 5.902861
129.500 5.644711
130.500 5.545576
131.500 5.660013
132.500 5.518297
133.500 5.357285
134.500 5.408516
135.500 5.308051
136.500 5.165669
137.500 5.097139
138.500 5.053227
139.500 4.766467
140.500 4.677312
141.500 4.801730
142.500 4.704591
143.500 4.644711
144.200 4.632069
144.700 4.594810
145.500 4.527611
146.500 4.428476
147.500 4.365269
148.500 4.304059
149.500 4.231537
150.500 4.157019
151.200 4.079175
151.700 4.072522
152.500 3.997339
153.500 3.843646
154.500 3.779108
155.500 3.690619
156.500 3.670659
157.500 3.683965
158.500 3.664671
159.500 3.642715
160.500 3.509647
161.500 3.465735
162.500 3.393879
163.500 3.363939
164.500 3.288756
165.500 3.247505
166.500 3.294744
167.200 3.172322
167.700 3.236860
168.500 3.223553
169.500 3.149035
170.500 3.087159
171.500 3.033932
172.500 2.990020
173.500 3.004657
174.500 2.941450
175.500 2.934797
176.500 2.824351
177.500 2.846307
178.500 2.811045
179.500 2.801065
180.500 2.776447
181.500 2.723220
182.500 2.685961
183.500 2.651364
184.500 2.564870
185.500 2.530273
186.500 2.518297
187.500 2.517631
188.500 2.450432
189.500 2.403859
190.500 2.410512
191.500 2.361277
192.500 2.327345
193.500 2.309381
194.500 2.325349
195.500 2.260812
196.700 2.272122
197.600 2.255489
198.400 2.214238
199.500 2.164338
200.500 2.153027
201.500 2.130406
202.500 2.111111
203.500 2.091151
204.500 2.077844
205.500 1.924152
206.500 1.951430
207.400 2.033267
207.800 2.012641
208.500 2.006653
209.500 1.966733
210.500 1.955422
211.500 1.946108
212.500 1.930805
213.500 1.884897
214.500 1.883566
215.500 1.870259
216.500 1.825682
217.500 1.812375
218.500 1.799069
219.500 1.811710
220.500 1.774451
221.500 1.730539
222.500 1.717232
223.500 1.739854
224.500 1.702595
225.500 1.661344
226.500 1.646707
227.500 1.652695
228.500 1.648703
229.500 1.602794
230.500 1.602794
231.500 1.588822
232.500 1.478377
233.500 1.540918
234.500 1.485695
235.500 1.525615
236.500 1.468397
237.500 1.482369
238.500 1.410512
239.500 1.439122
240.500 1.417166
241.500 1.411843
242.500 1.435795
243.500 1.407851
244.500 1.415170
245.500 1.401863
246.500 1.383234
247.500 1.357285
248.500 1.346640
249.500 1.311377
250.500 1.358616
251.300 1.294079
251.800 1.291417
252.500 1.268796
253.500 1.264804
254.500 1.260146
255.500 1.284764
256.500 1.267465
257.500 1.282102
258.500 1.272122
259.500 1.255489
260.500 1.230206
261.500 1.210246
262.500 1.226880
263.500 1.234864
264.500 1.278776
265.500 1.280106
266.500 1.238856
267.500 1.248836
268.500 1.251497
269.500 1.211577
270.500 1.215569
271.500 1.179641
272.500 1.169661
273.500 1.180306
274.500 1.113107
275.500 1.125749
276.500 1.147039
277.500 1.163007
278.500 1.131071
279.500 0.992016
280.500 1.024617
281.500 1.144378
282.500 1.147039
283.500 1.131071
284.500 1.110446
285.500 1.065203
286.500 1.113107
287.500 1.109115
288.500 1.106454
289.500 1.101796
291.000 1.123752
293.000 1.099135
295.000 1.080506
297.000 1.076514
299.000 1.069195
301.000 1.063207
303.000 1.053892
305.000 1.049235
307.000 1.033932
309.000 1.023952
311.000 1.013972
313.000 1.000665
315.000 0.990685
317.000 0.989355
319.000 0.960080
321.000 0.968064
323.000 0.946773
325.000 0.962741
327.000 0.973387
329.000 0.965403
331.000 0.958749
332.200 0.904857
332.300 0.889554
332.400 0.883566
332.500 0.890885
332.600 0.884232
332.700 0.872255
332.800 0.876913
332.900 0.886893
333.000 0.905522
333.100 0.914837
333.200 0.907518
333.300 0.902196
333.400 0.888889
333.500 0.882901
333.600 0.872921
333.700 0.863606
333.800 0.870259
333.900 0.875582
334.000 0.876248
334.100 0.880240
334.200 0.876248
334.300 0.891550
334.400 0.908849
334.500 0.911510
334.600 0.910845
334.700 0.892881
334.800 0.866933
334.900 0.842981
335.000 0.838989
335.100 0.847638
335.200 0.854291
335.300 0.860945
335.400 0.870925
335.500 0.881570
335.600 0.878909
335.700 0.866267
335.800 0.836327
335.900 0.809714
336.000 0.791084
336.100 0.799069
336.200 0.821025
336.300 0.846307
336.400 0.862275
336.500 0.852295
336.600 0.841650
336.700 0.836327
336.800 0.830339
336.900 0.829009
337.000 0.815037
337.100 0.800399
337.200 0.791750
337.300 0.803726
337.400 0.824351
337.500 0.853626
337.600 0.868263
337.700 0.860945
337.800 0.845642
337.900 0.835662
338.000 0.840985
338.100 0.851630
338.200 0.858949
338.300 0.864937
338.400 0.866933
338.500 0.873586
338.600 0.868263
338.700 0.852295
338.800 0.841650
338.900 0.852295
339.000 0.868263
339.100 0.882901
339.200 0.876913
339.300 0.864937
339.400 0.869594
339.500 0.879574
339.600 0.893546
339.700 0.899534
339.800 0.903526
339.900 0.894877
340.000 0.882236
340.100 0.875582
340.200 0.854957
340.300 0.848303
340.400 0.842981
340.500 0.850965
340.600 0.850299
340.700 0.846307
340.800 0.842981
340.900 0.843646
341.000 0.856287
341.100 0.850299
341.200 0.846973
341.300 0.844311
341.400 0.847638
341.500 0.860279
341.600 0.868929
341.700 0.873586
341.800 0.880905
341.900 0.886893
342.000 0.892216
342.100 0.892216
342.200 0.877578
342.300 0.860279
342.400 0.854291
342.500 0.858949
342.600 0.866267
342.700 0.876248
342.800 0.891550
342.900 0.904192
343.000 0.906853
343.100 0.890885
343.200 0.873586
343.300 0.866933
343.400 0.878909
343.500 0.897538
343.600 0.901530
343.700 0.891550
343.800 0.878909
343.900 0.865602
344.000 0.851630
344.100 0.834331
344.200 0.825682
344.300 0.825682
344.400 0.832335
344.500 0.842981
344.600 0.862275
344.700 0.884232
344.800 0.902196
344.900 0.912841
345.000 0.890220
345.100 0.858949
345.200 0.839654
345.300 0.835662
345.400 0.845642
345.500 0.853626
345.600 0.854957
345.700 0.854957
345.800 0.849634
345.900 0.844311
346.000 0.834331
346.100 0.828343
346.200 0.837658
346.300 0.851630
346.400 0.854291
346.500 0.846973
346.600 0.847638
346.700 0.858283
346.800 0.870259
346.900 0.880905
347.000 0.887558
347.100 0.882901
347.200 0.874251
347.300 0.853626
347.400 0.838323
347.500 0.830339
347.600 0.832335
347.700 0.844977
347.800 0.854291
347.900 0.859614
348.000 0.870925
348.100 0.873586
348.200 0.866933
348.300 0.859614
348.400 0.856953
348.500 0.868929
348.600 0.883566
348.700 0.886228
348.800 0.881570
348.900 0.868263
349.000 0.854957
349.100 0.856953
349.200 0.870925
349.300 0.873586
349.400 0.868263
349.500 0.856953
349.600 0.846307
349.700 0.850965
349.800 0.852961
349.900 0.856287
350.000 0.848969
350.100 0.842315
350.200 0.849634
350.300 0.854291
350.400 0.853626
350.500 0.844977
350.600 0.836327
350.700 0.833001
350.800 0.831670
350.900 0.837658
351.000 0.842315
351.100 0.843646
351.200 0.838323
351.300 0.828343
351.400 0.827013
351.500 0.835662
351.600 0.856287
351.700 0.871590
351.800 0.875582
351.900 0.862275
352.000 0.850299
352.100 0.842981
352.200 0.837658
352.300 0.833666
352.400 0.826347
352.500 0.819029
352.600 0.825017
352.700 0.834331
352.800 0.846973
352.900 0.860279
353.000 0.870925
353.100 0.878909
353.200 0.876913
353.300 0.856287
353.400 0.840319
353.500 0.835662
353.600 0.850299
353.700 0.868263
353.800 0.876913
353.900 0.882901
354.000 0.882236
354.100 0.878909
354.200 0.878244
354.300 0.886228
354.400 0.892216
354.500 0.890220
354.600 0.886228
354.700 0.881570
354.800 0.880240
354.900 0.880905
355.000 0.885562
355.100 0.893546
355.200 0.891550
355.300 0.878909
355.400 0.866267
355.500 0.866933
355.600 0.874917
355.700 0.888224
355.800 0.894877
355.900 0.893546
356.000 0.890220
356.100 0.889554
356.200 0.888224
356.300 0.878909
356.400 0.862941
356.500 0.847638
356.600 0.840319
356.700 0.840985
356.800 0.843646
356.900 0.841650
357.000 0.830339
357.100 0.813706
357.200 0.806387
357.300 0.807053
357.400 0.811045
357.500 0.819694
357.600 0.829009
357.700 0.833666
357.800 0.836993
357.900 0.833001
358.000 0.824351
358.100 0.815037
358.200 0.807718
358.300 0.808383
358.400 0.806387
358.500 0.795077
358.600 0.777778
358.700 0.769794
358.800 0.777112
358.900 0.798403
359.000 0.819029
359.100 0.828343
359.200 0.827013
359.300 0.825682
359.400 0.828343
359.500 0.838323
359.600 0.847638
359.700 0.852961
359.800 0.854957
359.900 0.855622
360.000 0.856287
360.100 0.844977
360.200 0.836327
360.300 0.830339
360.400 0.833666
360.500 0.838989
360.600 0.838323
360.700 0.833666
360.800 0.828343
360.900 0.829009
361.000 0.829674
361.100 0.830339
361.200 0.835662
361.300 0.838989
361.400 0.844311
361.500 0.858949
361.600 0.862275
361.700 0.856287
361.800 0.844977
361.900 0.834331
362.000 0.838323
362.100 0.847638
362.200 0.858949
362.300 0.864937
362.400 0.868263
362.500 0.880240
362.600 0.896873
362.700 0.912176
362.800 0.907518
362.900 0.887558
363.000 0.858283
363.100 0.840985
363.200 0.842981
363.300 0.858949
363.400 0.872255
363.500 0.869594
363.600 0.860279
363.700 0.862941
363.800 0.872255
363.900 0.879574
364.000 0.881570
364.100 0.878244
364.200 0.868929
364.300 0.858283
364.400 0.851630
364.500 0.849634
364.600 0.846307
364.700 0.844977
364.800 0.845642
364.900 0.844311
365.000 0.844977
365.100 0.847638
365.200 0.857618
365.300 0.866933
365.400 0.876248
365.500 0.885562
365.600 0.893546
365.700 0.895542
365.800 0.892881
365.900 0.890220
366.000 0.885562
366.100 0.878244
366.200 0.870259
366.300 0.867598
366.400 0.870925
366.500 0.875582
366.600 0.876913
366.700 0.874917
366.800 0.868263
366.900 0.862941
367.000 0.861610
367.100 0.865602
367.200 0.873586
367.300 0.878244
367.400 0.875582
367.500 0.868263
367.600 0.856287
367.700 0.844311
367.800 0.835662
367.900 0.837658
368.000 0.843646
368.100 0.848969
368.200 0.850299
368.300 0.848303
368.400 0.846973
368.500 0.840985
368.600 0.834331
368.700 0.834997
368.800 0.852295
368.900 0.875582
369.000 0.880240
369.100 0.871590
369.200 0.868263
369.300 0.874917
369.400 0.886228
369.500 0.890220
369.600 0.874917
369.700 0.858949
369.800 0.866267
369.900 0.896873
370.000 0.934797
370.100 0.936793
370.200 0.898869
370.300 0.837658
370.400 0.799069
370.500 0.794411
370.600 0.823686
370.700 0.861610
370.800 0.891550
370.900 0.884897
371.000 0.847638
371.100 0.811710
371.200 0.793746
371.300 0.817033
371.400 0.870925
371.500 0.936793
371.600 0.977379
371.700 0.995343
371.800 0.978044
371.900 0.921490
372.000 0.828343
372.100 0.762475
372.200 0.740519
372.300 0.775116
372.400 0.852961
372.500 0.928809
372.600 0.972721
372.700 1.005323
372.800 1.019295
372.900 1.022621
373.000 1.010645
373.100 0.966068
373.200 0.874917
373.300 0.789754
373.400 0.717232
373.500 0.699933
373.600 0.741850
373.700 0.827678
373.800 0.908849
373.900 1.000000
374.000 1.051896
374.100 1.082502
374.200 1.080506
374.300 1.065203
374.400 1.038589
374.500 1.003992
374.600 0.958084
374.700 0.894877
374.800 0.823021
374.900 0.746507
375.000 0.713240
375.100 0.733200
375.200 0.799734
375.300 0.896208
375.400 0.982036
375.500 1.035263
375.600 1.071856
375.700 1.076514
375.800 1.071191
375.900 1.065203
376.000 1.065203
376.100 1.077179
376.200 1.091151
376.300 1.088490
376.400 1.075848
376.500 1.045243
376.600 1.003992
376.700 0.952761
376.800 0.871590
376.900 0.793081
377.000 0.729208
377.100 0.717898
377.200 0.767798
377.300 0.854957
377.400 0.927478
377.500 0.990020
377.600 1.033932
377.700 1.077179
377.800 1.126414
377.900 1.163673
378.000 1.201597
378.100 1.220226
378.200 1.228876
378.300 1.228210
378.400 1.225549
378.500 1.218896
378.600 1.208250
378.700 1.187625
378.800 1.168995
378.900 1.154358
379.000 1.137059
379.100 1.116434
379.200 1.079840
379.300 1.033267
379.400 0.971391
379.500 0.887558
379.600 0.805057
379.700 0.722555
379.800 0.685961
379.900 0.712575
380.000 0.803726
380.100 0.899534
380.200 0.993347
380.300 1.046574
380.400 1.095143
380.500 1.124418
380.600 1.145709
380.700 1.172322
380.800 1.198270
380.900 1.229541
381.000 1.254158
381.100 1.266134
381.200 1.252828
381.300 1.234198
381.400 1.216900
381.500 1.216900
381.600 1.226880
381.700 1.238856
381.800 1.238856
381.900 1.213573
382.000 1.191617
382.100 1.182302
382.200 1.192947
382.300 1.195609
382.400 1.171657
382.500 1.141717
382.600 1.111776
382.700 1.088490
382.800 1.059215
382.900 1.025283
383.000 0.989355
383.100 0.934797
383.200 0.874251
383.300 0.785762
383.400 0.697937
383.500 0.654158
383.600 0.653959
383.700 0.700599
383.800 0.776447
383.900 0.851630
384.000 0.918164
384.100 0.990020
384.200 1.047239
384.300 1.109115
384.400 1.149701
384.500 1.180971
384.600 1.208250
384.700 1.230206
384.800 1.246174
384.900 1.250166
385.000 1.253493
385.100 1.268796
385.200 1.289421
385.300 1.306720
385.400 1.307385
385.500 1.298071
385.600 1.286094
385.700 1.278776
385.800 1.276114
385.900 1.280772
386.000 1.290086
386.100 1.302063
386.200 1.308716
386.300 1.304724
386.400 1.300732
386.500 1.296740
386.600 1.298071
386.700 1.303393
386.800 1.308051
386.900 1.306055
387.000 1.290752
387.100 1.271457
387.200 1.245509
387.300 1.232868
387.400 1.230872
387.500 1.234864
387.600 1.228876
387.700 1.202262
387.800 1.176314
387.900 1.153693
388.000 1.147039
388.100 1.134398
388.200 1.101131
388.300 1.065203
388.400 1.015968
388.500 0.954092
388.600 0.876248
388.700 0.775116
388.800 0.701929
388.900 0.670659
389.000 0.703260
389.100 0.783766
389.200 0.878244
389.300 0.943446
389.400 0.998004
389.500 1.037924
389.600 1.081836
389.700 1.119760
389.800 1.147039
389.900 1.165669
390.000 1.180306
390.100 1.203593
390.200 1.222222
390.300 1.237525
390.400 1.239521
390.500 1.242182
390.600 1.251497
390.700 1.272788
390.800 1.303393
390.900 1.331337
391.000 1.345309
391.100 1.349301
391.200 1.347305
391.300 1.337991
391.400 1.325349
391.500 1.324019
391.600 1.332003
391.700 1.334664
391.800 1.331337
391.900 1.322023
392.000 1.319361
392.100 1.318696
392.200 1.318696
392.300 1.320692
392.400 1.320027
392.500 1.319361
392.600 1.302728
392.700 1.280772
392.800 1.247505
392.900 1.207585
393.000 1.159681
393.100 1.075848
393.200 0.967399
393.300 0.865602
393.400 0.843646
393.500 0.914837
393.600 1.031936
393.700 1.131737
393.800 1.210246
393.900 1.255489
394.000 1.282768
394.100 1.300732
394.200 1.306055
394.300 1.301397
394.400 1.298071
394.500 1.295409
394.600 1.299401
394.700 1.302063
394.800 1.296740
394.900 1.288090
395.000 1.281437
395.100 1.274118
395.200 1.267465
395.300 1.269461
395.400 1.266800
395.500 1.255489
395.600 1.238190
395.700 1.218230
395.800 1.208250
395.900 1.195609
396.000 1.165669
396.100 1.129741
396.200 1.081171
396.300 1.037924
396.400 0.985363
396.500 0.905522
396.600 0.805722
396.700 0.667332
396.800 0.556953
396.900 0.493214
397.000 0.510645
397.100 0.587092
397.200 0.701929
397.300 0.801065
397.400 0.896873
397.500 0.965403
397.600 1.025948
397.700 1.076514
397.800 1.113772
397.900 1.153027
398.000 1.174983
398.100 1.192947
398.200 1.208916
398.300 1.223553
398.400 1.243513
398.500 1.262808
398.600 1.277445
398.700 1.287425
398.800 1.304724
398.900 1.311377
399.000 1.316700
399.100 1.324684
399.200 1.331337
399.300 1.341983
399.400 1.345975
399.500 1.344644
399.600 1.333999
399.700 1.326015
399.800 1.325349
399.900 1.337325
400.000 1.345309
400.100 1.349967
400.200 1.351963
400.300 1.347305
400.400 1.339321
400.500 1.330007
400.600 1.330672
400.700 1.339321
400.800 1.354624
400.900 1.363273
401.000 1.365935
401.100 1.367265
401.200 1.367931
401.300 1.367265
401.400 1.367931
401.500 1.373919
401.600 1.381238
401.700 1.387226
401.800 1.393879
401.900 1.397871
402.000 1.399867
402.100 1.395875
402.200 1.388556
402.300 1.376580
402.400 1.362608
402.500 1.353293
402.600 1.354624
402.700 1.369927
402.800 1.380572
402.900 1.382568
403.000 1.374584
403.100 1.365935
403.200 1.363273
403.300 1.365269
403.400 1.371923
403.500 1.386560
403.600 1.400532
403.700 1.415170
403.800 1.418496
403.900 1.413174
404.000 1.406520
404.100 1.401198
404.200 1.399202
404.300 1.391218
404.400 1.369927
404.500 1.347971
404.600 1.337991
404.700 1.355289
404.800 1.379907
404.900 1.397206
405.000 1.399867
405.100 1.399867
405.200 1.395875
405.300 1.387226
405.400 1.379907
405.500 1.377911
405.600 1.379242
405.700 1.381903
405.800 1.383234
405.900 1.392548
406.000 1.397871
406.100 1.390552
406.200 1.367931
406.300 1.345975
406.400 1.331337
406.500 1.318696
406.600 1.324019
406.700 1.330007
406.800 1.329341
406.900 1.328011
407.000 1.320027
407.100 1.301397
407.200 1.291417
407.300 1.294079
407.400 1.300732
407.500 1.300067
407.600 1.280772
407.700 1.262808
407.800 1.252828
407.900 1.263473
408.000 1.281437
408.100 1.293413
408.200 1.293413
408.300 1.283433
408.400 1.270792
408.500 1.258150
408.600 1.252828
408.700 1.252162
408.800 1.250166
408.900 1.244844
409.000 1.228876
409.100 1.214238
409.200 1.199601
409.300 1.172322
409.400 1.146374
409.500 1.105788
409.600 1.063872
409.700 1.017964
409.800 0.956753
409.900 0.886893
410.000 0.789754
410.100 0.717232
410.200 0.692615
410.300 0.745176
410.400 0.833001
410.500 0.927478
410.600 0.988024
410.700 1.037259
410.800 1.072522
410.900 1.101131
411.000 1.129741
411.100 1.151697
411.200 1.178310
411.300 1.198935
411.400 1.219561
411.500 1.238856
411.600 1.250832
411.700 1.254158
411.800 1.251497
411.900 1.248170
412.000 1.250832
412.100 1.260146
412.200 1.269461
412.300 1.278110
412.400 1.288090
412.500 1.296740
412.600 1.296740
412.700 1.292083
412.800 1.287425
412.900 1.287425
413.000 1.285429
413.100 1.282102
413.200 1.278776
413.300 1.283433
413.400 1.299401
413.500 1.313373
413.600 1.324019
413.700 1.333333
413.800 1.342648
413.900 1.350632
414.000 1.349301
414.100 1.337325
414.200 1.318696
414.300 1.302063
414.400 1.298736
414.500 1.308051
414.600 1.324684
414.700 1.332003
414.800 1.332668
414.900 1.333333
415.000 1.335995
415.100 1.339987
415.200 1.337325
415.300 1.332668
415.400 1.326680
415.500 1.324019
