# Wavelength (nm)   F_lamA (normalized erg/cm2/s/A)9.100 0.000001
9.400 0.000002
9.600 0.000004
9.800 0.000006
10.000 0.000009
10.200 0.000014
10.400 0.000021
10.600 0.000032
10.800 0.000046
11.000 0.000065
11.400 0.000128
11.800 0.000237
12.100 0.000366
12.500 0.000631
12.700 0.000815
12.800 0.000924
13.100 0.001326
13.200 0.001490
13.400 0.001870
13.700 0.002591
14.000 0.003532
14.300 0.004743
14.700 0.006877
15.100 0.009745
15.500 0.013520
15.900 0.018403
16.200 0.022917
16.600 0.030248
17.000 0.039319
17.300 0.047400
17.700 0.060104
18.000 0.071231
18.200 0.079465
18.600 0.098042
19.100 0.125625
19.400 0.144551
19.800 0.173048
20.200 0.205351
20.500 0.232108
21.000 0.282032
21.600 0.350990
22.000 0.402545
22.300 0.444420
22.700 0.504459
23.000 16.619534
23.400 18.305417
24.000 23.634979
24.600 32.325430
25.200 39.504024
25.700 30.552534
26.000 43.648031
26.400 55.112030
26.900 56.090929
27.400 56.961062
27.900 54.763977
28.400 57.613661
29.000 57.319991
29.600 52.697411
30.100 36.523820
30.800 45.399173
31.800 56.515119
32.800 56.656515
33.800 55.536219
34.800 54.513813
35.700 55.296933
36.600 55.938656
37.500 55.014140
38.500 52.077442
39.500 53.393518
40.500 53.469654
41.400 52.751795
42.200 51.413966
43.000 50.543833
44.100 50.609093
45.100 49.760714
46.000 48.401131
47.000 47.541875
48.000 47.106809
49.000 45.616707
50.000 45.486187
50.600 48.868827
51.200 57.776811
52.000 56.656515
53.000 55.623233
54.000 52.708288
55.000 52.044812
56.000 53.415271
57.000 52.697411
58.000 51.065913
59.000 50.793996
60.000 49.293017
61.000 47.889928
62.000 48.357625
63.000 47.313465
64.000 46.802262
65.000 45.736350
65.800 44.572547
66.500 44.637807
67.500 44.148358
68.500 42.527735
69.500 42.582119
70.500 40.928867
71.600 41.146400
72.600 40.515554
73.500 39.949967
74.500 39.068958
75.500 38.340222
76.500 37.350446
77.500 37.002393
78.500 36.317163
79.500 35.751577
80.500 35.262127
81.500 34.740048
82.500 34.261475
83.500 32.814879
84.500 33.075919
85.500 32.455950
86.500 32.097020
87.500 31.585817
88.500 31.063737
89.500 30.541658
90.500 29.834675
91.500 31.661953
92.500 51.424842
93.500 67.489667
94.500 88.568632
95.500 93.985208
96.500 105.101153
97.500 73.700239
98.500 101.816402
99.500 95.420927
100.500 98.640418
101.500 94.866217
102.500 68.229280
103.500 89.286491
104.500 92.212312
105.500 90.200131
106.500 86.023494
107.500 85.120731
108.500 79.453992
109.500 82.194910
110.500 79.562758
111.500 77.822493
112.500 74.515989
113.500 74.690015
114.500 72.536437
115.500 70.991951
116.500 69.534479
117.500 63.041114
118.500 65.934305
119.500 64.009136
120.500 60.952795
121.500 45.507940
122.500 58.668697
123.500 58.994997
124.500 57.722428
125.500 57.069828
126.500 55.873396
127.500 54.894496
128.500 53.774201
129.500 51.936045
130.500 51.033283
131.500 50.456820
132.500 49.162497
133.500 47.900805
134.500 47.335219
135.500 46.378073
136.500 45.290407
137.500 44.289754
138.500 43.506635
139.500 40.917990
140.500 39.667174
141.500 40.928867
142.500 39.939091
143.500 39.329998
144.200 38.786165
144.700 38.383729
145.500 37.731129
146.500 37.002393
147.500 36.295410
148.500 35.664564
149.500 34.924951
150.500 34.207092
151.200 33.728519
151.700 33.413095
152.500 32.858386
153.500 31.814227
154.500 30.574288
155.500 30.117468
156.500 30.128345
157.500 29.769415
158.500 29.312595
159.500 28.779639
160.500 27.942136
161.500 27.420057
162.500 26.952360
163.500 26.288884
164.500 25.157712
165.500 25.734174
166.500 25.309985
167.200 24.831412
167.700 24.918425
168.500 24.526865
169.500 24.080922
170.500 23.602349
171.500 23.004133
172.500 22.677833
173.500 22.471177
174.500 22.036111
175.500 21.655427
176.500 21.252991
177.500 20.948445
178.500 20.633022
179.500 20.284968
180.500 19.969545
181.500 19.599739
182.500 19.284316
183.500 18.979769
184.500 18.544703
185.500 18.185773
186.500 17.935610
187.500 17.718077
188.500 17.304764
189.500 16.956711
190.500 16.826191
191.500 16.467261
192.500 16.151838
193.500 16.010442
194.500 15.814662
195.500 15.433979
196.700 15.270829
197.600 15.096802
198.400 14.846639
199.500 14.531216
200.500 14.400696
201.500 14.204916
202.500 14.009136
203.500 13.758973
204.500 13.541440
205.500 11.703285
206.500 12.094844
207.400 13.019360
207.800 12.943224
208.500 12.845334
209.500 12.649554
210.500 12.497281
211.500 12.366761
212.500 12.192734
213.500 12.007831
214.500 11.812051
215.500 11.714161
216.500 11.463998
217.500 11.366108
218.500 11.137698
219.500 11.061562
220.500 10.898412
221.500 10.651512
222.500 10.577551
223.500 10.431803
224.500 10.287144
225.500 10.044594
226.500 9.995649
227.500 9.858603
228.500 9.721558
229.500 9.509463
230.500 9.356102
231.500 9.320209
232.500 9.023276
233.500 9.055906
234.500 8.926474
235.500 8.818795
236.500 8.688275
237.500 8.576245
238.500 8.347836
239.500 8.339134
240.500 8.230368
241.500 8.122689
242.500 8.026974
243.500 7.918208
244.500 7.817055
245.500 7.714814
246.500 7.613661
247.500 7.512508
248.500 7.415706
249.500 7.182945
250.500 7.222101
251.300 6.921906
251.800 7.092669
252.500 7.033935
253.500 6.944747
254.500 6.853383
255.500 6.778334
256.500 6.691320
257.500 6.613008
258.500 6.528171
259.500 6.443333
260.500 6.362845
261.500 6.280183
262.500 6.211660
263.500 6.139874
264.500 6.088754
265.500 6.014792
266.500 5.931042
267.500 5.862519
268.500 5.808136
269.500 5.713509
270.500 5.665652
271.500 5.591690
272.500 5.505765
273.500 5.390472
274.500 5.377420
275.500 5.321949
276.500 5.246900
277.500 5.216446
278.500 5.146835
279.500 5.042419
280.500 4.997825
281.500 4.981510
282.500 4.910811
283.500 4.862954
284.500 4.816184
285.500 4.756363
286.500 4.712856
287.500 4.659561
288.500 4.609528
289.500 4.556232
291.000 4.490972
293.000 4.390907
295.000 4.279965
297.000 4.204916
299.000 4.116815
301.000 4.014575
303.000 3.913422
305.000 3.815532
307.000 3.720905
309.000 3.631716
311.000 3.541440
313.000 3.454427
315.000 3.376115
317.000 3.297803
319.000 3.197738
321.000 3.123776
323.000 3.065042
325.000 3.000870
327.000 2.938873
329.000 2.873613
331.000 2.814879
332.200 2.731129
332.300 2.750707
332.400 2.742006
332.500 2.740918
332.600 2.720252
332.700 2.693061
332.800 2.678921
332.900 2.681096
333.000 2.688710
333.100 2.687622
333.200 2.674570
333.300 2.653905
333.400 2.638677
333.500 2.627801
333.600 2.610398
333.700 2.602784
333.800 2.599521
333.900 2.599521
334.000 2.584294
334.100 2.588645
334.200 2.597346
334.300 2.651729
334.400 2.690885
334.500 2.713726
334.600 2.730041
334.700 2.732217
334.800 2.694148
334.900 2.631064
335.000 2.529911
335.100 2.525560
335.200 2.552752
335.300 2.564716
335.400 2.560365
335.500 2.544050
335.600 2.538612
335.700 2.536437
335.800 2.530998
335.900 2.523385
336.000 2.524472
336.100 2.532086
336.200 2.549489
336.300 2.552752
336.400 2.550576
336.500 2.525560
336.600 2.499456
336.700 2.482054
336.800 2.470089
336.900 2.471177
337.000 2.486404
337.100 2.483141
337.200 2.462476
337.300 2.473352
337.400 2.492930
337.500 2.524472
337.600 2.534261
337.700 2.509245
337.800 2.495106
337.900 2.495106
338.000 2.519034
338.100 2.546226
338.200 2.554927
338.300 2.552752
338.400 2.538612
338.500 2.550576
338.600 2.567979
338.700 2.579943
338.800 2.582119
338.900 2.556015
339.000 2.545138
339.100 2.541875
339.200 2.557102
339.300 2.572330
339.400 2.607135
339.500 2.613661
339.600 2.594083
339.700 2.566891
339.800 2.542963
339.900 2.488580
340.000 2.457037
340.100 2.461388
340.200 2.442898
340.300 2.433109
340.400 2.441810
340.500 2.451599
340.600 2.442898
340.700 2.439635
340.800 2.447248
340.900 2.454862
341.000 2.464651
341.100 2.434196
341.200 2.430933
341.300 2.450511
341.400 2.473352
341.500 2.491843
341.600 2.492930
341.700 2.495106
341.800 2.497281
341.900 2.504894
342.000 2.507070
342.100 2.511420
342.200 2.509245
342.300 2.509245
342.400 2.500544
342.500 2.492930
342.600 2.496193
342.700 2.502719
342.800 2.520122
342.900 2.524472
343.000 2.505982
343.100 2.494018
343.200 2.485317
343.300 2.487492
343.400 2.494018
343.500 2.509245
343.600 2.516859
343.700 2.511420
343.800 2.494018
343.900 2.469002
344.000 2.427670
344.100 2.408092
344.200 2.409180
344.300 2.432021
344.400 2.451599
344.500 2.435284
344.600 2.428758
344.700 2.427670
344.800 2.449424
344.900 2.470089
345.000 2.416794
345.100 2.372199
345.200 2.354797
345.300 2.355884
345.400 2.370024
345.500 2.375462
345.600 2.377638
345.700 2.374375
345.800 2.364586
345.900 2.354797
346.000 2.347183
346.100 2.347183
346.200 2.365673
346.300 2.445073
346.400 2.412443
346.500 2.404829
346.600 2.411355
346.700 2.407005
346.800 2.401566
346.900 2.409180
347.000 2.415706
347.100 2.378725
347.200 2.372199
347.300 2.399391
347.400 2.392865
347.500 2.375462
347.600 2.348271
347.700 2.298238
347.800 2.256907
347.900 2.252556
348.000 2.285186
348.100 2.325430
348.200 2.314553
348.300 2.284098
348.400 2.287361
348.500 2.336306
348.600 2.360235
348.700 2.375462
348.800 2.404829
348.900 2.407005
349.000 2.384164
349.100 2.373287
349.200 2.395040
349.300 2.396128
349.400 2.392865
349.500 2.376550
349.600 2.341745
349.700 2.341745
349.800 2.359147
349.900 2.377638
350.000 2.359147
350.100 2.310202
350.200 2.310202
350.300 2.323254
350.400 2.309115
350.500 2.280835
350.600 2.267783
350.700 2.276485
350.800 2.291712
350.900 2.292800
351.000 2.287361
351.100 2.285186
351.200 2.277572
351.300 2.267783
351.400 2.276485
351.500 2.279748
351.600 2.298238
351.700 2.292800
351.800 2.292800
351.900 2.294975
352.000 2.290624
352.100 2.283011
352.200 2.275397
352.300 2.274309
352.400 2.291712
352.500 2.262345
352.600 2.259082
352.700 2.261257
352.800 2.275397
352.900 2.296063
353.000 2.304764
353.100 2.313465
353.200 2.325430
353.300 2.312378
353.400 2.284098
353.500 2.278660
353.600 2.284098
353.700 2.266696
353.800 2.265608
353.900 2.269959
354.000 2.291712
354.100 2.304764
354.200 2.298238
354.300 2.287361
354.400 2.290624
354.500 2.297150
354.600 2.288449
354.700 2.297150
354.800 2.311290
354.900 2.310202
355.000 2.292800
355.100 2.281923
355.200 2.289537
355.300 2.300413
355.400 2.299326
355.500 2.285186
355.600 2.271046
355.700 2.278660
355.800 2.288449
355.900 2.285186
356.000 2.279748
356.100 2.288449
356.200 2.298238
356.300 2.289537
356.400 2.278660
356.500 2.281923
356.600 2.280835
356.700 2.253644
356.800 2.257994
356.900 2.251468
357.000 2.219926
357.100 2.165543
357.200 2.155754
357.300 2.160104
357.400 2.153578
357.500 2.159017
357.600 2.172069
357.700 2.175332
357.800 2.175332
357.900 2.168806
358.000 2.175332
358.100 2.179682
358.200 2.167718
358.300 2.167718
358.400 2.173156
358.500 2.161192
358.600 2.142702
358.700 2.130737
358.800 2.122036
358.900 2.122036
359.000 2.142702
359.100 2.156841
359.200 2.157929
359.300 2.164455
359.400 2.166630
359.500 2.162280
359.600 2.156841
359.700 2.159017
359.800 2.167718
359.900 2.180770
360.000 2.203611
360.100 2.197085
360.200 2.192734
360.300 2.170981
360.400 2.155754
360.500 2.159017
360.600 2.161192
360.700 2.163367
360.800 2.173156
360.900 2.180770
361.000 2.170981
361.100 2.140526
361.200 2.141614
361.300 2.138351
361.400 2.124211
361.500 2.127474
361.600 2.151403
361.700 2.168806
361.800 2.173156
361.900 2.166630
362.000 2.142702
362.100 2.143789
362.200 2.173156
362.300 2.177507
362.400 2.165543
362.500 2.164455
362.600 2.178595
362.700 2.192734
362.800 2.182945
362.900 2.167718
363.000 2.167718
363.100 2.164455
363.200 2.147052
363.300 2.138351
363.400 2.164455
363.500 2.167718
363.600 2.125299
363.700 2.104633
363.800 2.111159
363.900 2.115510
364.000 2.122036
364.100 2.132913
364.200 2.132913
364.300 2.108984
364.400 2.080705
364.500 2.075266
364.600 2.081792
364.700 2.089406
364.800 2.099195
364.900 2.103546
365.000 2.100283
365.100 2.090494
365.200 2.088318
365.300 2.088318
365.400 2.087231
365.500 2.098107
365.600 2.104633
365.700 2.099195
365.800 2.097020
365.900 2.092669
366.000 2.079617
366.100 2.074179
366.200 2.073091
366.300 2.081792
366.400 2.087231
366.500 2.081792
366.600 2.077442
366.700 2.069828
366.800 2.065477
366.900 2.072003
367.000 2.073091
367.100 2.068740
367.200 2.067653
367.300 2.065477
367.400 2.062214
367.500 2.057864
367.600 2.066565
367.700 2.053513
367.800 2.042637
367.900 2.040461
368.000 2.044812
368.100 2.055688
368.200 2.063302
368.300 2.055688
368.400 2.041549
368.500 2.035023
368.600 2.030672
368.700 2.026322
368.800 2.041549
368.900 2.067653
369.000 2.074179
369.100 2.061127
369.200 2.061127
369.300 2.070916
369.400 2.066565
369.500 2.058951
369.600 2.044812
369.700 2.027409
369.800 2.027409
369.900 2.058951
370.000 2.106809
370.100 2.104633
370.200 2.060039
370.300 1.995867
370.400 1.948010
370.500 1.931695
370.600 1.961062
370.700 2.002393
370.800 2.026322
370.900 2.017620
371.000 1.982815
371.100 1.943659
371.200 1.917555
371.300 1.928432
371.400 1.986078
371.500 2.061127
371.600 2.093757
371.700 2.101370
371.800 2.098107
371.900 2.038286
372.000 1.939308
372.100 1.877311
372.200 1.850120
372.300 1.867522
372.400 1.931695
372.500 2.004568
372.600 2.036111
372.700 2.057864
372.800 2.070916
372.900 2.080705
373.000 2.080705
373.100 2.041549
373.200 1.963237
373.300 1.880574
373.400 1.806613
373.500 1.782684
373.600 1.816402
373.700 1.897977
373.800 1.971938
373.900 2.053513
374.000 2.103546
374.100 2.124211
374.200 2.112247
374.300 2.085055
374.400 2.068740
374.500 2.048075
374.600 1.996955
374.700 1.920818
374.800 1.843594
374.900 1.752230
375.000 1.720687
375.100 1.760931
375.200 1.845769
375.300 1.921906
375.400 1.988253
375.500 2.033935
375.600 2.062214
375.700 2.049162
375.800 2.006744
375.900 1.973026
376.000 1.957799
376.100 1.956711
376.200 2.011094
376.300 2.044812
376.400 2.040461
376.500 2.015445
376.600 1.975201
376.700 1.921906
376.800 1.847944
376.900 1.767457
377.000 1.695671
377.100 1.679356
377.200 1.740265
377.300 1.838155
377.400 1.913204
377.500 1.958886
377.600 1.987166
377.700 2.014357
377.800 2.045899
377.900 2.061127
378.000 2.075266
378.100 2.088318
378.200 2.097020
378.300 2.083968
378.400 2.074179
378.500 2.082880
378.600 2.074179
378.700 2.046987
378.800 2.025234
378.900 2.018708
379.000 2.012182
379.100 2.003481
379.200 1.993692
379.300 1.973026
379.400 1.914292
379.500 1.829454
379.600 1.729389
379.700 1.633674
379.800 1.592343
379.900 1.626060
380.000 1.744616
380.100 1.865347
380.200 1.946922
380.300 1.992604
380.400 2.020883
380.500 2.040461
380.600 2.024146
380.700 2.023059
380.800 2.035023
380.900 2.055688
381.000 2.080705
381.100 2.089406
381.200 2.062214
381.300 2.026322
381.400 1.999130
381.500 1.991516
381.600 1.994779
381.700 2.005656
381.800 2.002393
381.900 1.987166
382.000 1.964325
382.100 1.949097
382.200 1.980640
382.300 2.011094
382.400 1.998042
382.500 1.969763
382.600 1.944747
382.700 1.953448
382.800 1.955623
382.900 1.931695
383.000 1.896889
383.100 1.853383
383.200 1.782684
383.300 1.679356
383.400 1.566239
383.500 1.503154
383.600 1.508593
383.700 1.593430
383.800 1.696759
383.900 1.788123
384.000 1.844681
384.100 1.889276
384.200 1.925169
384.300 1.967588
384.400 2.008919
384.500 2.037198
384.600 2.029585
384.700 2.027409
384.800 2.021971
384.900 2.023059
385.000 2.012182
385.100 2.019796
385.200 2.035023
385.300 2.039374
385.400 2.032848
385.500 2.019796
385.600 1.999130
385.700 1.986078
385.800 1.987166
385.900 2.003481
386.000 2.008919
386.100 2.023059
386.200 2.019796
386.300 1.999130
386.400 1.992604
386.500 1.983903
386.600 1.980640
386.700 1.994779
386.800 2.014357
386.900 2.017620
387.000 2.002393
387.100 1.978464
387.200 1.949097
387.300 1.937133
387.400 1.949097
387.500 1.970851
387.600 1.979552
387.700 1.963237
387.800 1.945834
387.900 1.941484
388.000 1.957799
388.100 1.952360
388.200 1.926256
388.300 1.894714
388.400 1.868610
388.500 1.812051
388.600 1.714161
388.700 1.583642
388.800 1.474875
388.900 1.430281
389.000 1.493365
389.100 1.632586
389.200 1.760931
389.300 1.847944
389.400 1.887100
389.500 1.903415
389.600 1.915380
389.700 1.934958
389.800 1.946922
389.900 1.938221
390.000 1.936045
390.100 1.955623
390.200 1.977377
390.300 1.989341
390.400 1.989341
390.500 1.983903
390.600 1.964325
390.700 1.968675
390.800 2.002393
390.900 2.029585
391.000 2.028497
391.100 2.028497
391.200 2.021971
391.300 1.993692
391.400 1.976289
391.500 1.982815
391.600 1.990429
391.700 1.990429
391.800 1.981727
391.900 1.959974
392.000 1.949097
392.100 1.946922
392.200 1.933870
392.300 1.913204
392.400 1.911029
392.500 1.926256
392.600 1.918643
392.700 1.907766
392.800 1.880574
392.900 1.852295
393.000 1.814227
393.100 1.743528
393.200 1.584729
393.300 1.367196
393.400 1.367196
393.500 1.541223
393.600 1.669567
393.700 1.751142
393.800 1.810964
393.900 1.855558
394.000 1.897977
394.100 1.922993
394.200 1.930607
394.300 1.922993
394.400 1.917555
394.500 1.901240
394.600 1.902328
394.700 1.917555
394.800 1.918643
394.900 1.908854
395.000 1.902328
395.100 1.896889
395.200 1.893626
395.300 1.899065
395.400 1.906678
395.500 1.906678
395.600 1.891451
395.700 1.871873
395.800 1.864259
395.900 1.875136
396.000 1.878399
396.100 1.863172
396.200 1.827279
396.300 1.780509
396.400 1.728301
396.500 1.666304
396.600 1.561888
396.700 1.353056
396.800 1.134436
396.900 1.056450
397.000 1.109419
397.100 1.235588
397.200 1.398738
397.300 1.536872
397.400 1.639112
397.500 1.716337
397.600 1.775071
397.700 1.803350
397.800 1.815314
397.900 1.841418
398.000 1.854470
398.100 1.858821
398.200 1.849032
398.300 1.839243
398.400 1.851207
398.500 1.870785
398.600 1.850120
398.700 1.805525
398.800 1.859909
398.900 1.878399
399.000 1.890363
399.100 1.900152
399.200 1.907766
399.300 1.914292
399.400 1.905591
399.500 1.895802
399.600 1.872961
399.700 1.860996
399.800 1.862084
399.900 1.869698
400.000 1.866435
400.100 1.867522
400.200 1.869698
400.300 1.869698
400.400 1.870785
400.500 1.863172
400.600 1.859909
400.700 1.864259
400.800 1.879487
400.900 1.881662
401.000 1.876224
401.100 1.878399
401.200 1.877311
401.300 1.876224
401.400 1.883837
401.500 1.889276
401.600 1.895802
401.700 1.906678
401.800 1.916467
401.900 1.926256
402.000 1.924081
402.100 1.907766
402.200 1.891451
402.300 1.859909
402.400 1.813139
402.500 1.772895
402.600 1.776158
402.700 1.812051
402.800 1.850120
402.900 1.867522
403.000 1.877311
403.100 1.870785
403.200 1.869698
403.300 1.872961
403.400 1.877311
403.500 1.886013
403.600 1.895802
403.700 1.906678
403.800 1.915380
403.900 1.911029
404.000 1.911029
404.100 1.914292
404.200 1.906678
404.300 1.897977
404.400 1.887100
404.500 1.868610
404.600 1.853383
404.700 1.870785
404.800 1.893626
404.900 1.902328
405.000 1.901240
405.100 1.901240
405.200 1.905591
405.300 1.894714
405.400 1.890363
405.500 1.896889
405.600 1.901240
405.700 1.905591
405.800 1.914292
405.900 1.920818
406.000 1.913204
406.100 1.884925
406.200 1.875136
406.300 1.869698
406.400 1.825103
406.500 1.747879
406.600 1.783772
406.700 1.824016
406.800 1.827279
406.900 1.821840
407.000 1.812051
407.100 1.801175
407.200 1.800087
407.300 1.795736
407.400 1.808788
407.500 1.808788
407.600 1.785947
407.700 1.764194
407.800 1.758756
407.900 1.785947
408.000 1.818577
408.100 1.833805
408.200 1.834892
408.300 1.830542
408.400 1.813139
408.500 1.803350
408.600 1.797912
408.700 1.813139
408.800 1.830542
408.900 1.839243
409.000 1.830542
409.100 1.821840
409.200 1.817490
409.300 1.796824
409.400 1.775071
409.500 1.743528
409.600 1.709811
409.700 1.669567
409.800 1.601044
409.900 1.516206
410.000 1.409615
410.100 1.305199
410.200 1.262780
410.300 1.329128
410.400 1.472700
410.500 1.609745
410.600 1.683707
410.700 1.714161
410.800 1.733739
410.900 1.738090
411.000 1.741353
411.100 1.752230
411.200 1.769632
411.300 1.785947
411.400 1.808788
411.500 1.827279
411.600 1.835980
411.700 1.821840
411.800 1.795736
411.900 1.776158
412.000 1.773983
412.100 1.777246
412.200 1.771808
412.300 1.772895
412.400 1.787035
412.500 1.802262
412.600 1.806613
412.700 1.790298
412.800 1.765282
412.900 1.760931
413.000 1.767457
413.100 1.772895
413.200 1.768545
413.300 1.768545
413.400 1.779421
413.500 1.795736
413.600 1.804438
413.700 1.813139
413.800 1.822928
413.900 1.829454
414.000 1.829454
414.100 1.826191
414.200 1.804438
