# Wavelength (nm)   F_lamA (normalized erg/cm2/s/A)9.100 0.000989
9.400 0.001116
9.600 0.001203
9.800 0.001292
10.000 0.001384
10.200 0.001479
10.400 0.001574
10.600 0.001674
10.800 0.001777
11.000 0.001881
11.400 0.002103
11.800 0.002343
12.100 0.002539
12.500 0.002824
12.700 0.002980
12.800 0.003062
13.100 0.003323
13.200 0.003416
13.400 0.003613
13.700 0.003936
14.000 0.004299
14.300 0.004705
14.700 0.005328
15.100 0.006057
15.500 0.006909
15.900 0.007904
16.200 0.008756
16.600 0.010048
17.000 0.011535
17.300 0.012792
17.700 0.014675
18.000 0.016250
18.200 0.017388
18.600 0.019862
19.100 0.023376
19.400 0.025724
19.800 0.029140
20.200 0.032907
20.500 0.035957
21.000 0.041510
21.600 0.048960
22.000 0.054400
22.300 0.058743
22.700 0.064886
23.000 1.478774
23.400 1.653078
24.000 2.119764
24.600 2.856340
25.200 3.588698
25.700 2.857745
26.000 3.982288
26.400 5.021085
26.900 5.175710
27.400 5.281136
27.900 4.949396
28.400 5.438572
29.000 5.434355
29.600 4.914254
30.100 3.216193
30.800 3.968232
31.800 5.095586
32.800 5.109643
33.800 4.969075
34.800 4.843970
35.700 4.994377
36.600 5.209446
37.500 5.109643
38.500 4.732921
39.500 4.976103
40.500 5.054821
41.400 4.994377
42.200 4.843970
43.000 4.730110
44.100 4.811639
45.100 4.751195
46.000 4.586730
47.000 4.509418
48.000 4.502390
49.000 4.323868
50.000 4.368850
50.600 4.745572
51.200 5.961484
52.000 5.802643
53.000 5.648018
54.000 5.264268
55.000 5.189767
56.000 5.500422
57.000 5.452629
58.000 5.261456
59.000 5.258645
60.000 5.060444
61.000 4.918471
62.000 5.073095
63.000 4.947990
64.000 4.926905
65.000 4.807422
65.800 4.669665
66.500 4.714647
67.500 4.689345
68.500 4.478493
69.500 4.536126
70.500 4.311217
71.600 4.415238
72.600 4.359010
73.500 4.312623
74.500 4.214225
75.500 4.138319
76.500 4.017430
77.500 4.006185
78.500 3.940118
79.500 3.893731
80.500 3.850155
81.500 3.806579
82.500 3.765814
83.500 3.559179
84.500 3.647737
85.500 3.584481
86.500 3.561990
87.500 3.515603
88.500 3.464999
89.500 3.414394
90.500 3.339893
91.500 3.448130
92.500 6.549058
93.500 9.285915
94.500 13.383469
95.500 15.321900
96.500 17.753725
97.500 10.427326
98.500 18.597132
99.500 18.175429
100.500 18.962609
101.500 17.008715
102.500 10.004217
103.500 15.448412
104.500 18.569019
105.500 18.667416
106.500 17.599100
107.500 18.048918
108.500 16.769750
109.500 17.641271
110.500 16.994658
111.500 16.713523
112.500 15.856058
113.500 16.179365
114.500 15.490582
115.500 15.350014
116.500 15.125105
117.500 13.308968
118.500 14.021647
119.500 12.738263
120.500 11.109081
121.500 6.833005
122.500 10.684566
123.500 12.177397
124.500 12.506326
125.500 12.551307
126.500 12.205510
127.500 12.464155
128.500 12.393871
129.500 11.835817
130.500 11.619342
131.500 11.840034
132.500 11.527973
133.500 11.179365
134.500 11.270734
135.500 11.059882
136.500 10.753444
137.500 10.598819
138.500 10.500422
139.500 9.887546
140.500 9.697779
141.500 9.955018
142.500 9.748383
143.500 9.627495
144.200 9.583919
144.700 9.506607
145.500 9.357605
146.500 9.157998
147.500 9.018836
148.500 8.885297
149.500 8.729266
150.500 8.564802
151.200 8.401743
151.700 8.389092
152.500 8.231656
153.500 7.906944
154.500 7.762159
155.500 7.576610
156.500 7.548496
157.500 7.555524
158.500 7.504920
159.500 7.448693
160.500 7.183019
161.500 7.078999
162.500 6.938431
163.500 6.865336
164.500 6.686815
165.500 6.636210
166.500 6.685409
167.200 6.457689
167.700 6.565926
168.500 6.522350
169.500 6.378971
170.500 6.244026
171.500 6.116109
172.500 6.024740
173.500 6.041608
174.500 5.913691
175.500 5.885578
176.500 5.680349
177.500 5.704245
178.500 5.628338
179.500 5.590385
180.500 5.528535
181.500 5.416081
182.500 5.350014
183.500 5.271296
184.500 5.112454
185.500 5.023897
186.500 4.987349
187.500 4.985943
188.500 4.841158
189.500 4.737138
190.500 4.759629
191.500 4.644363
192.500 4.568457
193.500 4.551588
194.500 4.555805
195.500 4.419455
196.700 4.432106
197.600 4.405398
198.400 4.319651
199.500 4.217037
200.500 4.204386
201.500 4.153781
202.500 4.127073
203.500 4.059601
204.500 4.018836
205.500 3.701153
206.500 3.763003
207.400 3.913410
207.800 3.865617
208.500 3.854372
209.500 3.778465
210.500 3.760191
211.500 3.732078
212.500 3.701153
213.500 3.626652
214.500 3.598538
215.500 3.573236
216.500 3.494518
217.500 3.464999
218.500 3.425640
219.500 3.428451
220.500 3.363790
221.500 3.292100
222.500 3.254147
223.500 3.266798
224.500 3.207759
225.500 3.140287
226.500 3.119202
227.500 3.107956
228.500 3.086871
229.500 3.010964
230.500 2.991285
231.500 2.964577
232.500 2.769188
233.500 2.883048
234.500 2.805735
235.500 2.829632
236.500 2.756536
237.500 2.756536
238.500 2.660950
239.500 2.687658
240.500 2.648299
241.500 2.628620
242.500 2.632837
243.500 2.583638
244.500 2.578015
245.500 2.554119
246.500 2.514760
247.500 2.482429
248.500 2.472589
249.500 2.398088
250.500 2.445881
251.300 2.362946
251.800 2.384031
252.500 2.344672
253.500 2.317965
254.500 2.299691
255.500 2.312342
256.500 2.284228
257.500 2.285634
258.500 2.267360
259.500 2.240652
260.500 2.205510
261.500 2.177397
262.500 2.173180
263.500 2.163340
264.500 2.194265
265.500 2.177397
266.500 2.132415
267.500 2.128198
268.500 2.119764
269.500 2.077593
270.500 2.069159
271.500 2.032612
272.500 2.008715
273.500 2.005904
274.500 1.944054
275.500 1.938431
276.500 1.941243
277.500 1.952488
278.500 1.922969
279.500 1.804892
280.500 1.830194
281.500 1.899072
282.500 1.879393
283.500 1.855496
284.500 1.837222
285.500 1.807703
286.500 1.818949
287.500 1.802080
288.500 1.793646
289.500 1.779590
291.000 1.778184
293.000 1.740231
295.000 1.707900
297.000 1.691032
299.000 1.667135
301.000 1.646050
303.000 1.622154
305.000 1.598257
307.000 1.571549
309.000 1.549058
311.000 1.523756
313.000 1.499859
315.000 1.478774
317.000 1.460500
319.000 1.423953
321.000 1.414113
323.000 1.390076
325.000 1.381361
327.000 1.370818
329.000 1.352966
331.000 1.337222
332.200 1.299269
332.300 1.300675
332.400 1.294911
332.500 1.289289
332.600 1.279871
332.700 1.268344
332.800 1.273264
332.900 1.279308
333.000 1.286618
333.100 1.293365
333.200 1.290976
333.300 1.283525
333.400 1.270874
333.500 1.262862
333.600 1.251195
333.700 1.239387
333.800 1.239247
333.900 1.240933
334.000 1.238684
334.100 1.243323
334.200 1.245291
334.300 1.267360
334.400 1.286759
334.500 1.292943
334.600 1.294911
334.700 1.286337
334.800 1.263846
334.900 1.235451
335.000 1.208743
335.100 1.210008
335.200 1.222660
335.300 1.231515
335.400 1.233343
335.500 1.232499
335.600 1.233905
335.700 1.235732
335.800 1.226595
335.900 1.213523
336.000 1.204526
336.100 1.200731
336.200 1.212960
336.300 1.220692
336.400 1.225330
336.500 1.213241
336.600 1.200450
336.700 1.192297
336.800 1.189345
336.900 1.194546
337.000 1.198763
337.100 1.193281
337.200 1.176272
337.300 1.175429
337.400 1.188361
337.500 1.214085
337.600 1.230250
337.700 1.216896
337.800 1.202137
337.900 1.193281
338.000 1.200590
338.100 1.214507
338.200 1.225893
338.300 1.235732
338.400 1.235732
338.500 1.238965
338.600 1.236576
338.700 1.225611
338.800 1.218864
338.900 1.226314
339.000 1.237700
339.100 1.247821
339.200 1.245010
339.300 1.234748
339.400 1.242339
339.500 1.250914
339.600 1.259910
339.700 1.257380
339.800 1.251335
339.900 1.228845
340.000 1.208462
340.100 1.207478
340.200 1.195811
340.300 1.193562
340.400 1.192859
340.500 1.197357
340.600 1.190751
340.700 1.187658
340.800 1.192016
340.900 1.197779
341.000 1.204667
341.100 1.193000
341.200 1.193843
341.300 1.204807
341.400 1.216756
341.500 1.221535
341.600 1.219989
341.700 1.219145
341.800 1.225190
341.900 1.231375
342.000 1.233062
342.100 1.231375
342.200 1.222238
342.300 1.216334
342.400 1.214085
342.500 1.213241
342.600 1.217037
342.700 1.222519
342.800 1.231656
342.900 1.239247
343.000 1.232499
343.100 1.224627
343.200 1.217318
343.300 1.216053
343.400 1.222238
343.500 1.229969
343.600 1.233062
343.700 1.229266
343.800 1.223925
343.900 1.215350
344.000 1.201012
344.100 1.186955
344.200 1.181192
344.300 1.182598
344.400 1.185690
344.500 1.189767
344.600 1.200872
344.700 1.214085
344.800 1.230250
344.900 1.241355
345.000 1.213804
345.100 1.180489
345.200 1.162778
345.300 1.156874
345.400 1.166995
345.500 1.168541
345.600 1.166995
345.700 1.168681
345.800 1.165589
345.900 1.164886
346.000 1.159263
346.100 1.155328
346.200 1.161091
346.300 1.178943
346.400 1.173742
346.500 1.169947
346.600 1.171915
346.700 1.178240
346.800 1.181754
346.900 1.186955
347.000 1.194968
347.100 1.190751
347.200 1.182035
347.300 1.169103
347.400 1.163340
347.500 1.157858
347.600 1.158420
347.700 1.158982
347.800 1.155187
347.900 1.152657
348.000 1.160810
348.100 1.166151
348.200 1.159263
348.300 1.150548
348.400 1.151251
348.500 1.169947
348.600 1.186393
348.700 1.192297
348.800 1.192578
348.900 1.183301
349.000 1.172617
349.100 1.173882
349.200 1.184144
349.300 1.185690
349.400 1.179646
349.500 1.168541
349.600 1.160950
349.700 1.164746
349.800 1.168963
349.900 1.169103
350.000 1.153641
350.100 1.144223
350.200 1.150829
350.300 1.153781
350.400 1.148018
350.500 1.136773
350.600 1.131431
350.700 1.133258
350.800 1.136351
350.900 1.139443
351.000 1.144363
351.100 1.147175
351.200 1.144925
351.300 1.136491
351.400 1.132696
351.500 1.139724
351.600 1.150267
351.700 1.156452
351.800 1.158420
351.900 1.154203
352.000 1.151392
352.100 1.146893
352.200 1.141833
352.300 1.141411
352.400 1.141974
352.500 1.139303
352.600 1.142536
352.700 1.145207
352.800 1.151392
352.900 1.160107
353.000 1.168541
353.100 1.174726
353.200 1.177818
353.300 1.168260
353.400 1.155046
353.500 1.148861
353.600 1.150970
353.700 1.152797
353.800 1.155468
353.900 1.158701
354.000 1.161372
354.100 1.160529
354.200 1.161372
354.300 1.166151
354.400 1.170368
354.500 1.169806
354.600 1.167979
354.700 1.167838
354.800 1.169806
354.900 1.168400
355.000 1.167557
355.100 1.171212
355.200 1.171774
355.300 1.166011
355.400 1.157577
355.500 1.156030
355.600 1.160669
355.700 1.169806
355.800 1.173039
355.900 1.168822
356.000 1.162215
356.100 1.163340
356.200 1.165870
356.300 1.161372
356.400 1.150829
356.500 1.141411
356.600 1.140006
356.700 1.139162
356.800 1.141130
356.900 1.137335
357.000 1.126371
357.100 1.105707
357.200 1.092915
357.300 1.090947
357.400 1.092494
357.500 1.096851
357.600 1.103599
357.700 1.105145
357.800 1.104864
357.900 1.101631
358.000 1.100365
358.100 1.098960
358.200 1.096008
358.300 1.094743
358.400 1.090245
358.500 1.081951
358.600 1.071127
358.700 1.065364
358.800 1.067191
358.900 1.079140
359.000 1.091650
359.100 1.094743
359.200 1.090947
359.300 1.090385
359.400 1.092353
359.500 1.098116
359.600 1.102615
359.700 1.105145
359.800 1.107675
359.900 1.110486
360.000 1.113298
360.100 1.107816
360.200 1.105988
360.300 1.102193
360.400 1.100225
360.500 1.100365
360.600 1.101349
360.700 1.099663
360.800 1.099663
360.900 1.103458
361.000 1.105566
361.100 1.104583
361.200 1.104864
361.300 1.103177
361.400 1.103036
361.500 1.107816
361.600 1.113017
361.700 1.115547
361.800 1.115687
361.900 1.113719
362.000 1.111892
362.100 1.113579
362.200 1.122716
362.300 1.128198
362.400 1.127636
362.500 1.133399
362.600 1.142958
362.700 1.151392
362.800 1.149143
362.900 1.137616
363.000 1.124121
363.100 1.115828
363.200 1.117234
363.300 1.126652
363.400 1.136491
363.500 1.134102
363.600 1.117234
363.700 1.110065
363.800 1.113579
363.900 1.117655
364.000 1.119764
364.100 1.118499
364.200 1.114001
364.300 1.106832
364.400 1.101209
364.500 1.102474
364.600 1.099522
364.700 1.098257
364.800 1.099241
364.900 1.098679
365.000 1.099663
365.100 1.099944
365.200 1.103458
365.300 1.107394
365.400 1.111470
365.500 1.114703
365.600 1.118920
365.700 1.119061
365.800 1.117374
365.900 1.115406
366.000 1.109643
366.100 1.103880
366.200 1.098960
366.300 1.100365
366.400 1.103880
366.500 1.105145
366.600 1.104301
366.700 1.099100
366.800 1.094040
366.900 1.093337
367.000 1.096289
367.100 1.099382
367.200 1.103317
367.300 1.102615
367.400 1.098538
367.500 1.090526
367.600 1.081811
367.700 1.074501
367.800 1.070846
367.900 1.073236
368.000 1.078015
368.100 1.084903
368.200 1.083919
368.300 1.080405
368.400 1.078156
368.500 1.072111
368.600 1.064099
368.700 1.065786
368.800 1.084903
368.900 1.108237
369.000 1.107956
369.100 1.088136
369.200 1.085325
369.300 1.099241
369.400 1.118218
369.500 1.121591
369.600 1.094743
369.700 1.076047
369.800 1.081811
369.900 1.120607
370.000 1.165589
370.100 1.170509
370.200 1.131009
370.300 1.058055
370.400 1.020382
370.500 1.019117
370.600 1.067473
370.700 1.120748
370.800 1.161653
370.900 1.146612
371.000 1.091088
371.100 1.035704
371.200 1.001265
371.300 1.021085
371.400 1.082513
371.500 1.177116
371.600 1.236716
371.700 1.269890
371.800 1.257661
371.900 1.193984
372.000 1.081529
372.100 1.007169
372.200 0.964999
372.300 0.996064
372.400 1.079140
372.500 1.182317
372.600 1.245010
372.700 1.303346
372.800 1.327101
372.900 1.331459
373.000 1.308547
373.100 1.245150
373.200 1.131572
373.300 1.033596
373.400 0.945179
373.500 0.926764
373.600 0.976806
373.700 1.086168
373.800 1.185971
373.900 1.303908
374.000 1.369272
374.100 1.414113
374.200 1.426764
374.300 1.416924
374.400 1.389232
374.500 1.346640
374.600 1.278043
374.700 1.187658
374.800 1.088839
374.900 0.974417
375.000 0.929294
375.100 0.938291
375.200 1.011667
375.300 1.124403
375.400 1.245010
375.500 1.318949
375.600 1.385578
375.700 1.411302
375.800 1.422547
375.900 1.422547
376.000 1.421141
376.100 1.426764
376.200 1.439415
376.300 1.433793
376.400 1.414113
376.500 1.370537
376.600 1.304189
376.700 1.231234
376.800 1.119202
376.900 1.008434
377.000 0.920439
377.100 0.889654
377.200 0.946022
377.300 1.058898
377.400 1.157295
377.500 1.255412
377.600 1.333427
377.700 1.398791
377.800 1.466123
377.900 1.509699
378.000 1.554681
378.100 1.579983
378.200 1.595446
378.300 1.601068
378.400 1.605285
378.500 1.605285
378.600 1.596851
378.700 1.575766
378.800 1.554681
378.900 1.532190
379.000 1.499859
379.100 1.461906
379.200 1.404976
379.300 1.337785
379.400 1.256115
379.500 1.137194
379.600 1.026286
379.700 0.912848
379.800 0.861259
379.900 0.892747
380.000 1.002530
380.100 1.116109
380.200 1.239528
380.300 1.317965
380.400 1.393028
380.500 1.447849
380.600 1.485803
380.700 1.527973
380.800 1.561709
380.900 1.599663
381.000 1.629182
381.100 1.647456
381.200 1.644644
381.300 1.633399
381.400 1.620748
381.500 1.622154
381.600 1.629182
381.700 1.631993
381.800 1.622154
381.900 1.594040
382.000 1.572955
382.100 1.565926
382.200 1.578577
382.300 1.579983
382.400 1.557492
382.500 1.526567
382.600 1.487208
382.700 1.456283
382.800 1.415519
382.900 1.361962
383.000 1.307000
383.100 1.226877
383.200 1.142958
383.300 1.029098
383.400 0.903008
383.500 0.840174
383.600 0.831459
383.700 0.893871
383.800 0.995924
383.900 1.105004
384.000 1.195108
384.100 1.293787
384.200 1.364633
384.300 1.439415
384.400 1.490020
384.500 1.533596
384.600 1.568738
384.700 1.595446
384.800 1.615125
384.900 1.626371
385.000 1.636210
385.100 1.655890
385.200 1.674164
385.300 1.685409
385.400 1.684003
385.500 1.676975
385.600 1.668541
385.700 1.668541
385.800 1.678381
385.900 1.692437
386.000 1.702277
386.100 1.706494
386.200 1.700872
386.300 1.678381
386.400 1.671352
386.500 1.669947
386.600 1.672758
386.700 1.679786
386.800 1.684003
386.900 1.682598
387.000 1.669947
387.100 1.653078
387.200 1.627776
387.300 1.617936
387.400 1.616531
387.500 1.615125
387.600 1.602474
387.700 1.572955
387.800 1.544841
387.900 1.518133
388.000 1.497048
388.100 1.468934
388.200 1.418330
388.300 1.367163
388.400 1.298145
388.500 1.213944
388.600 1.112735
388.700 0.978212
388.800 0.877284
388.900 0.824571
389.000 0.856340
389.100 0.953472
389.200 1.081811
389.300 1.176132
389.400 1.266095
389.500 1.329069
389.600 1.391903
389.700 1.445038
389.800 1.478774
389.900 1.508294
390.000 1.529379
390.100 1.558898
390.200 1.589823
390.300 1.612314
390.400 1.624965
390.500 1.631993
390.600 1.640427
390.700 1.660107
390.800 1.689626
390.900 1.717740
391.000 1.730391
391.100 1.736013
391.200 1.731796
391.300 1.717740
391.400 1.707900
391.500 1.710711
391.600 1.724768
391.700 1.730391
391.800 1.730391
391.900 1.721957
392.000 1.720551
392.100 1.720551
392.200 1.717740
392.300 1.716334
392.400 1.714928
392.500 1.717740
392.600 1.710711
392.700 1.702277
392.800 1.684003
392.900 1.662918
393.000 1.631993
393.100 1.570143
393.200 1.468934
393.300 1.351982
393.400 1.323306
393.500 1.394152
393.600 1.509699
393.700 1.599663
393.800 1.657295
393.900 1.685409
394.000 1.703683
394.100 1.716334
394.200 1.717740
394.300 1.707900
394.400 1.698060
394.500 1.685409
394.600 1.678381
394.700 1.676975
394.800 1.671352
394.900 1.664324
395.000 1.654484
395.100 1.644644
395.200 1.636210
395.300 1.631993
395.400 1.624965
395.500 1.606691
395.600 1.585606
395.700 1.563115
395.800 1.547653
395.900 1.526567
396.000 1.492831
396.100 1.453472
396.200 1.401462
396.300 1.355496
396.400 1.291116
396.500 1.208181
396.600 1.103177
396.700 0.947146
396.800 0.810233
396.900 0.716193
397.000 0.701153
397.100 0.765392
397.200 0.884594
397.300 0.998875
397.400 1.117374
397.500 1.203542
397.600 1.280011
397.700 1.343970
397.800 1.386843
397.900 1.436604
398.000 1.467529
398.100 1.498454
398.200 1.522350
398.300 1.542030
398.400 1.565926
398.500 1.585606
398.600 1.599663
398.700 1.606691
398.800 1.626371
398.900 1.636210
399.000 1.646050
399.100 1.655890
399.200 1.660107
399.300 1.667135
399.400 1.671352
399.500 1.675569
399.600 1.674164
399.700 1.671352
399.800 1.671352
399.900 1.676975
400.000 1.676975
400.100 1.672758
400.200 1.672758
400.300 1.667135
400.400 1.665730
400.500 1.662918
400.600 1.664324
400.700 1.668541
400.800 1.675569
400.900 1.676975
401.000 1.676975
401.100 1.679786
401.200 1.682598
401.300 1.685409
401.400 1.686815
401.500 1.692437
401.600 1.700872
401.700 1.709306
401.800 1.717740
401.900 1.720551
402.000 1.720551
402.100 1.714928
402.200 1.707900
402.300 1.689626
402.400 1.662918
402.500 1.640427
402.600 1.634805
402.700 1.651673
402.800 1.672758
402.900 1.686815
403.000 1.696654
403.100 1.699466
403.200 1.700872
403.300 1.702277
403.400 1.706494
403.500 1.716334
403.600 1.723362
403.700 1.728985
403.800 1.728985
403.900 1.723362
404.000 1.720551
404.100 1.717740
404.200 1.716334
404.300 1.712117
404.400 1.696654
404.500 1.679786
404.600 1.671352
404.700 1.682598
404.800 1.699466
404.900 1.709306
405.000 1.710711
405.100 1.710711
405.200 1.707900
405.300 1.699466
405.400 1.692437
405.500 1.693843
405.600 1.698060
405.700 1.702277
405.800 1.702277
405.900 1.705089
406.000 1.707900
406.100 1.698060
406.200 1.681192
406.300 1.667135
406.400 1.651673
406.500 1.626371
406.600 1.624965
406.700 1.630588
406.800 1.629182
406.900 1.626371
407.000 1.617936
407.100 1.599663
407.200 1.591229
407.300 1.591229
407.400 1.595446
407.500 1.594040
407.600 1.577172
407.700 1.564521
407.800 1.556087
407.900 1.563115
408.000 1.574360
408.100 1.577172
408.200 1.575766
408.300 1.565926
408.400 1.553275
408.500 1.539218
408.600 1.525162
408.700 1.518133
408.800 1.508294
408.900 1.497048
409.000 1.474557
409.100 1.453472
409.200 1.433793
409.300 1.399635
409.400 1.364352
409.500 1.307281
409.600 1.249649
409.700 1.188080
409.800 1.104020
409.900 1.012089
410.000 0.896823
410.100 0.807000
410.200 0.779308
410.300 0.832021
410.400 0.932387
410.500 1.047512
410.600 1.128901
410.700 1.199888
410.800 1.256255
410.900 1.298566
411.000 1.341299
411.100 1.373208
411.200 1.407085
411.300 1.433793
411.400 1.456283
411.500 1.480180
411.600 1.498454
411.700 1.506888
411.800 1.508294
411.900 1.509699
412.000 1.512511
412.100 1.520945
412.200 1.530784
412.300 1.540624
412.400 1.553275
412.500 1.563115
412.600 1.560304
412.700 1.551870
412.800 1.543435
412.900 1.540624
413.000 1.540624
413.100 1.543435
413.200 1.549058
413.300 1.558898
413.400 1.577172
413.500 1.588417
413.600 1.595446
413.700 1.601068
413.800 1.606691
413.900 1.612314
414.000 1.613719
414.100 1.603880
414.200 1.588417
414.300 1.574360
414.400 1.568738
414.500 1.577172
414.600 1.589823
414.700 1.599663
414.800 1.602474
414.900 1.602474
415.000 1.605285
415.100 1.610908
415.200 1.612314
