# Wavelength (nm)   F_lamA (normalized erg/cm2/s/A)9.100 0.001531
9.400 0.001704
9.600 0.001821
9.800 0.001938
10.000 0.002057
10.200 0.002176
10.400 0.002297
10.600 0.002419
10.800 0.002544
11.000 0.002672
11.400 0.002939
11.800 0.003231
12.100 0.003472
12.500 0.003837
12.700 0.004042
12.800 0.004151
13.100 0.004510
13.200 0.004644
13.400 0.004926
13.700 0.005407
14.000 0.005961
14.300 0.006608
14.700 0.007635
15.100 0.008881
15.500 0.010386
15.900 0.012187
16.200 0.013760
16.600 0.016187
17.000 0.019030
17.300 0.021460
17.700 0.025139
18.000 0.028246
18.200 0.030504
18.600 0.035430
19.100 0.042522
19.400 0.047270
19.800 0.054214
20.200 0.061899
20.500 0.068160
21.000 0.079585
21.600 0.094955
22.000 0.106231
22.300 0.115252
22.700 0.128012
23.000 3.077151
23.400 3.445104
24.000 4.430267
24.600 5.985163
25.200 7.534125
25.700 5.994065
26.000 8.364985
26.400 10.557864
26.900 10.887240
27.400 11.109792
27.900 10.412463
28.400 11.445104
29.000 11.436202
29.600 10.341246
30.100 6.756677
30.800 8.344214
31.800 10.724036
32.800 10.756677
33.800 10.462908
34.800 10.198813
35.700 10.519288
36.600 10.973294
37.500 10.762611
38.500 9.970326
39.500 10.483680
40.500 10.652819
41.400 10.525223
42.200 10.207715
43.000 9.970326
44.100 10.139466
45.100 10.011869
46.000 9.667656
47.000 9.504451
48.000 9.492582
49.000 9.115727
50.000 9.210682
50.600 10.005935
51.200 12.569733
52.000 12.237389
53.000 11.910979
54.000 11.100890
55.000 10.946588
56.000 11.602374
57.000 11.501484
58.000 11.097923
59.000 11.091988
60.000 10.673591
61.000 10.373887
62.000 10.700297
63.000 10.439169
64.000 10.391691
65.000 10.142433
65.800 9.851632
66.500 9.943620
67.500 9.893175
68.500 9.448071
69.500 9.569733
70.500 9.094955
71.600 9.314540
72.600 9.195846
73.500 9.097923
74.500 8.890208
75.500 8.729970
76.500 8.477745
77.500 8.454006
78.500 8.314540
79.500 8.216617
80.500 8.121662
81.500 8.032641
82.500 7.943620
83.500 7.510386
84.500 7.697329
85.500 7.563798
86.500 7.513353
87.500 7.418398
88.500 7.308605
89.500 7.201780
90.500 7.047478
91.500 7.272997
92.500 13.818991
93.500 19.593472
94.500 28.234421
95.500 32.255193
96.500 37.359050
97.500 21.979228
98.500 38.724036
99.500 37.388724
100.500 39.050445
101.500 35.578635
102.500 21.100890
103.500 32.373887
104.500 38.130564
105.500 37.804154
106.500 35.400593
107.500 36.112760
108.500 33.442136
109.500 35.192878
110.500 33.827893
111.500 33.264095
112.500 31.483680
113.500 32.166172
114.500 30.830861
115.500 30.593472
116.500 30.178042
117.500 26.560831
118.500 28.353116
119.500 26.264095
120.500 23.231454
121.500 14.406528
122.500 22.394659
123.500 25.011869
124.500 25.237389
125.500 25.047478
126.500 24.376855
127.500 24.572700
128.500 24.264095
129.500 23.091988
130.500 22.706231
131.500 23.000000
132.500 22.338279
133.500 21.626113
134.500 21.718101
135.500 21.338279
136.500 20.738872
137.500 20.385757
138.500 20.145401
139.500 18.851632
140.500 18.451039
141.500 19.047478
142.500 18.608309
143.500 18.403561
144.200 18.264095
144.700 18.094955
145.500 17.786350
146.500 17.415430
147.500 17.130564
148.500 16.860534
149.500 16.543027
150.500 16.186944
151.200 15.869436
151.700 15.827893
152.500 15.557864
153.500 14.910979
154.500 14.543027
155.500 14.219585
156.500 14.252226
157.500 14.225519
158.500 14.086053
159.500 13.934718
160.500 13.451039
161.500 13.231454
162.500 13.011869
163.500 12.848665
164.500 12.459941
165.500 12.468843
166.500 12.451039
167.200 12.074184
167.700 12.261128
168.500 12.130564
169.500 11.875371
170.500 11.620178
171.500 11.341246
172.500 11.178042
173.500 11.175074
174.500 10.943620
175.500 10.854599
176.500 10.513353
177.500 10.495549
178.500 10.362018
179.500 10.261128
180.500 10.133531
181.500 9.913947
182.500 9.798220
183.500 9.646884
184.500 9.350148
185.500 9.166172
186.500 9.094955
187.500 9.077151
188.500 8.786350
189.500 8.575668
190.500 8.635015
191.500 8.406528
192.500 8.246291
193.500 8.240356
194.500 8.219585
195.500 7.943620
196.700 7.967359
197.600 7.934718
198.400 7.759644
199.500 7.566766
200.500 7.557864
201.500 7.474777
202.500 7.424332
203.500 7.270030
204.500 7.181009
205.500 6.548961
206.500 6.682493
207.400 6.982196
207.800 6.878338
208.500 6.857567
209.500 6.718101
210.500 6.691395
211.500 6.635015
212.500 6.575668
213.500 6.459941
214.500 6.373887
215.500 6.332344
216.500 6.201780
217.500 6.148368
218.500 6.056380
219.500 6.038576
220.500 5.934718
221.500 5.818991
222.500 5.750742
223.500 5.727003
224.500 5.640950
225.500 5.525223
226.500 5.492582
227.500 5.445104
228.500 5.391691
229.500 5.264095
230.500 5.219585
231.500 5.172107
232.500 4.854599
233.500 5.029674
234.500 4.928783
235.500 4.922849
236.500 4.824926
237.500 4.795252
238.500 4.661721
239.500 4.676558
240.500 4.611276
241.500 4.563798
242.500 4.543027
243.500 4.465875
244.500 4.433234
245.500 4.388724
246.500 4.323442
247.500 4.272997
248.500 4.243323
249.500 4.103858
250.500 4.160237
251.300 4.029674
251.800 4.083086
252.500 4.032641
253.500 3.976261
254.500 3.934718
255.500 3.928783
256.500 3.878338
257.500 3.860534
258.500 3.821958
259.500 3.777448
260.500 3.724036
261.500 3.682493
262.500 3.652819
263.500 3.620178
264.500 3.629080
265.500 3.590504
266.500 3.534125
267.500 3.510386
268.500 3.486647
269.500 3.427300
270.500 3.406528
271.500 3.359050
272.500 3.311573
273.500 3.284866
274.500 3.225519
275.500 3.201780
276.500 3.178042
277.500 3.178042
278.500 3.139466
279.500 3.032641
280.500 3.041543
281.500 3.065282
282.500 3.020772
283.500 2.985163
284.500 2.962315
285.500 2.929970
286.500 2.917211
287.500 2.886647
288.500 2.863798
289.500 2.837685
291.000 2.809496
293.000 2.748961
295.000 2.688427
297.000 2.652819
299.000 2.605045
301.000 2.557864
303.000 2.508012
305.000 2.459050
307.000 2.409792
309.000 2.364095
311.000 2.318398
313.000 2.272404
315.000 2.230861
317.000 2.191098
319.000 2.134718
321.000 2.105341
323.000 2.069436
325.000 2.037389
327.000 2.006231
329.000 1.970623
331.000 1.938576
332.200 1.922552
332.300 1.935312
332.400 1.925519
332.500 1.916914
332.600 1.903264
332.700 1.890504
332.800 1.889911
332.900 1.893472
333.000 1.897033
333.100 1.898516
333.200 1.891988
333.300 1.878635
333.400 1.865875
333.500 1.857270
333.600 1.847181
333.700 1.834718
333.800 1.823442
333.900 1.820178
334.000 1.811573
334.100 1.822849
334.200 1.832047
334.300 1.861721
334.400 1.885460
334.500 1.898813
334.600 1.912760
334.700 1.916024
334.800 1.890504
334.900 1.845401
335.000 1.781602
335.100 1.777448
335.200 1.802671
335.300 1.816914
335.400 1.813650
335.500 1.796142
335.600 1.793769
335.700 1.801780
335.800 1.805935
335.900 1.803858
336.000 1.804451
336.100 1.796142
336.200 1.805341
336.300 1.803858
336.400 1.802671
336.500 1.786944
336.600 1.768249
336.700 1.753116
336.800 1.745697
336.900 1.753412
337.000 1.776558
337.100 1.779525
337.200 1.757567
337.300 1.749555
337.400 1.757270
337.500 1.786944
337.600 1.802077
337.700 1.777448
337.800 1.762611
337.900 1.755786
338.000 1.771217
338.100 1.791691
338.200 1.808605
338.300 1.816914
338.400 1.812760
338.500 1.815134
338.600 1.815727
338.700 1.810979
338.800 1.807122
338.900 1.804154
339.000 1.809496
339.100 1.816914
339.200 1.821068
339.300 1.819881
339.400 1.831157
339.500 1.835312
339.600 1.835905
339.700 1.821365
339.800 1.805638
339.900 1.768546
340.000 1.740356
340.100 1.748368
340.200 1.735608
340.300 1.731157
340.400 1.731751
340.500 1.736795
340.600 1.728487
340.700 1.732047
340.800 1.744214
340.900 1.751632
341.000 1.753412
341.100 1.732938
341.200 1.737685
341.300 1.756973
341.400 1.775964
341.500 1.779525
341.600 1.777151
341.700 1.776855
341.800 1.783976
341.900 1.791395
342.000 1.789911
342.100 1.785757
342.200 1.776558
342.300 1.774481
342.400 1.774777
342.500 1.770623
342.600 1.776558
342.700 1.781009
342.800 1.788427
342.900 1.792582
343.000 1.776855
343.100 1.773887
343.200 1.770326
343.300 1.774481
343.400 1.778932
343.500 1.781602
343.600 1.785460
343.700 1.782789
343.800 1.781009
343.900 1.770623
344.000 1.746291
344.100 1.729674
344.200 1.724926
344.300 1.733531
344.400 1.738872
344.500 1.735312
344.600 1.740059
344.700 1.747181
344.800 1.766172
344.900 1.778932
345.000 1.740950
345.100 1.701187
345.200 1.682493
345.300 1.676261
345.400 1.683976
345.500 1.684570
345.600 1.686350
345.700 1.688131
345.800 1.681899
345.900 1.678932
346.000 1.673591
346.100 1.670623
346.200 1.677448
346.300 1.706825
346.400 1.694659
346.500 1.694362
346.600 1.697923
346.700 1.697033
346.800 1.692878
346.900 1.691691
347.000 1.701484
347.100 1.696439
347.200 1.690504
347.300 1.686350
347.400 1.686350
347.500 1.681306
347.600 1.678042
347.700 1.662018
347.800 1.643620
347.900 1.632344
348.000 1.641246
348.100 1.655490
348.200 1.646291
348.300 1.631454
348.400 1.633234
348.500 1.660534
348.600 1.681899
348.700 1.693472
348.800 1.705935
348.900 1.702077
349.000 1.691098
349.100 1.687834
349.200 1.700593
349.300 1.703858
349.400 1.694362
349.500 1.679228
349.600 1.670326
349.700 1.677151
349.800 1.687240
349.900 1.683086
350.000 1.654006
350.100 1.638576
350.200 1.647181
350.300 1.652226
350.400 1.640356
350.500 1.622849
350.600 1.615430
350.700 1.618398
350.800 1.629674
350.900 1.635608
351.000 1.640653
351.100 1.640950
351.200 1.635015
351.300 1.622255
351.400 1.618694
351.500 1.628487
351.600 1.638279
351.700 1.639763
351.800 1.643323
351.900 1.645994
352.000 1.646884
352.100 1.641840
352.200 1.635015
352.300 1.636499
352.400 1.644214
352.500 1.642136
352.600 1.640950
352.700 1.637685
352.800 1.639169
352.900 1.646588
353.000 1.654896
353.100 1.661721
353.200 1.670326
353.300 1.664095
353.400 1.647774
353.500 1.642136
353.600 1.641840
353.700 1.635312
353.800 1.637092
353.900 1.638872
354.000 1.645401
354.100 1.648071
354.200 1.648368
354.300 1.649555
354.400 1.654303
354.500 1.655786
354.600 1.655490
354.700 1.660237
354.800 1.663798
354.900 1.659941
355.000 1.654303
355.100 1.653412
355.200 1.658160
355.300 1.658457
355.400 1.649555
355.500 1.643323
355.600 1.643027
355.700 1.649258
355.800 1.651335
355.900 1.645697
356.000 1.637092
356.100 1.642136
356.200 1.649258
356.300 1.646884
356.400 1.635015
356.500 1.625223
356.600 1.624629
356.700 1.622255
356.800 1.629377
356.900 1.624629
357.000 1.607418
357.100 1.571810
357.200 1.551929
357.300 1.550742
357.400 1.550445
357.500 1.552522
357.600 1.560831
357.700 1.560237
357.800 1.555193
357.900 1.550445
358.000 1.552522
358.100 1.556083
358.200 1.554006
358.300 1.549555
358.400 1.546884
358.500 1.541246
358.600 1.534125
358.700 1.529377
358.800 1.524036
358.900 1.530564
359.000 1.542136
359.100 1.544510
359.200 1.539466
359.300 1.539466
359.400 1.541543
359.500 1.544510
359.600 1.545401
359.700 1.549555
359.800 1.554599
359.900 1.557270
360.000 1.561424
360.100 1.557864
360.200 1.560831
360.300 1.556380
360.400 1.550742
360.500 1.549258
360.600 1.551632
360.700 1.554006
360.800 1.558160
360.900 1.563798
361.000 1.567062
361.100 1.560831
361.200 1.557270
361.300 1.551929
361.400 1.548368
361.500 1.547774
361.600 1.554896
361.700 1.561424
361.800 1.569436
361.900 1.576261
362.000 1.570326
362.100 1.569139
362.200 1.582196
362.300 1.586944
362.400 1.582196
362.500 1.583383
362.600 1.590801
362.700 1.598813
362.800 1.597923
362.900 1.587834
363.000 1.581009
363.100 1.577151
363.200 1.575668
363.300 1.579228
363.400 1.593175
363.500 1.590208
363.600 1.559941
363.700 1.545994
363.800 1.548961
363.900 1.552819
364.000 1.554896
364.100 1.556083
364.200 1.556973
364.300 1.550742
364.400 1.542730
364.500 1.543323
364.600 1.537389
364.700 1.537389
364.800 1.540059
364.900 1.540653
365.000 1.542730
365.100 1.540950
365.200 1.540653
365.300 1.541543
365.400 1.541543
365.500 1.540356
365.600 1.543323
365.700 1.541246
365.800 1.538872
365.900 1.535015
366.000 1.525519
366.100 1.523145
366.200 1.519288
366.300 1.524926
366.400 1.528487
366.500 1.524332
366.600 1.522255
366.700 1.515727
366.800 1.513056
366.900 1.517507
367.000 1.522552
367.100 1.523145
367.200 1.521958
367.300 1.515727
367.400 1.510682
367.500 1.500593
367.600 1.496736
367.700 1.492582
367.800 1.489911
367.900 1.492285
368.000 1.496736
368.100 1.505935
368.200 1.502374
368.300 1.498516
368.400 1.499407
368.500 1.492582
368.600 1.478635
368.700 1.478635
368.800 1.500890
368.900 1.529080
369.000 1.526409
369.100 1.495252
369.200 1.496736
369.300 1.520178
369.400 1.545994
369.500 1.542730
369.600 1.500297
369.700 1.479822
369.800 1.485163
369.900 1.536499
370.000 1.591098
370.100 1.596736
370.200 1.548368
370.300 1.453116
370.400 1.408902
370.500 1.407715
370.600 1.475371
370.700 1.543917
370.800 1.600890
370.900 1.575964
371.000 1.502077
371.100 1.424926
371.200 1.382196
371.300 1.408605
371.400 1.482493
371.500 1.602671
371.600 1.671513
371.700 1.710682
371.800 1.699110
371.900 1.623145
372.000 1.482196
372.100 1.400000
372.200 1.348665
372.300 1.390504
372.400 1.485163
372.500 1.610682
372.600 1.673887
372.700 1.744510
372.800 1.772404
372.900 1.778635
373.000 1.752226
373.100 1.675074
373.200 1.537092
373.300 1.421365
373.400 1.319881
373.500 1.305935
373.600 1.370623
373.700 1.508902
373.800 1.620178
373.900 1.755786
374.000 1.824036
374.100 1.870920
374.200 1.883086
374.300 1.870623
374.400 1.843027
374.500 1.796439
374.600 1.712760
374.700 1.598813
374.800 1.475371
374.900 1.324036
375.000 1.277151
375.100 1.302671
375.200 1.407418
375.300 1.526409
375.400 1.663501
375.500 1.739763
375.600 1.816024
375.700 1.837982
375.800 1.843620
375.900 1.835312
376.000 1.824629
376.100 1.822255
376.200 1.849555
376.300 1.852226
376.400 1.831751
376.500 1.781602
376.600 1.705341
376.700 1.625223
376.800 1.497329
376.900 1.359347
377.000 1.255786
377.100 1.216617
377.200 1.294955
377.300 1.436202
377.400 1.555786
377.500 1.669139
377.600 1.756380
377.700 1.820475
377.800 1.884273
377.900 1.920475
378.000 1.958160
378.100 1.976558
378.200 1.989614
378.300 1.988131
378.400 1.987240
378.500 1.990504
378.600 1.983383
378.700 1.969436
378.800 1.955490
378.900 1.933234
379.000 1.899110
379.100 1.860237
379.200 1.801187
379.300 1.732047
379.400 1.645994
379.500 1.507418
379.600 1.375371
379.700 1.238279
379.800 1.175074
379.900 1.220475
380.000 1.362908
380.100 1.494362
380.200 1.634718
380.300 1.720178
380.400 1.794659
380.500 1.851335
380.600 1.881306
380.700 1.916024
380.800 1.945401
380.900 1.978042
381.000 2.004748
381.100 2.019585
381.200 2.011573
381.300 1.994065
381.400 1.978932
381.500 1.978932
381.600 1.977448
381.700 1.970030
381.800 1.948961
381.900 1.914540
382.000 1.893472
382.100 1.895549
382.200 1.927300
382.300 1.934718
382.400 1.920475
382.500 1.894955
382.600 1.859941
382.700 1.837389
382.800 1.801484
382.900 1.748665
383.000 1.691098
383.100 1.603858
383.200 1.507418
383.300 1.375371
383.400 1.210386
383.500 1.139169
383.600 1.133234
383.700 1.221958
383.800 1.350742
383.900 1.489318
384.000 1.588427
384.100 1.693472
384.200 1.757864
384.300 1.827003
384.400 1.869139
384.500 1.905935
384.600 1.932047
384.700 1.948071
384.800 1.959050
384.900 1.964095
385.000 1.971810
385.100 1.990504
385.200 2.001187
385.300 1.999407
385.400 1.987240
385.500 1.974481
385.600 1.965875
385.700 1.972404
385.800 1.992285
385.900 2.009496
386.000 2.018694
386.100 2.014243
386.200 1.991395
386.300 1.950445
386.400 1.947774
386.500 1.953709
386.600 1.958457
386.700 1.968843
386.800 1.975668
386.900 1.976261
387.000 1.967656
387.100 1.949852
387.200 1.929080
387.300 1.922849
387.400 1.929674
387.500 1.937685
387.600 1.926706
387.700 1.902967
387.800 1.884570
387.900 1.865875
388.000 1.849555
388.100 1.816914
388.200 1.764095
388.300 1.714540
388.400 1.647774
388.500 1.555490
388.600 1.440059
388.700 1.277448
388.800 1.151335
388.900 1.089021
389.000 1.135312
389.100 1.259941
389.200 1.423442
389.300 1.535905
389.400 1.636499
389.500 1.700593
389.600 1.758754
389.700 1.808605
389.800 1.835312
389.900 1.855786
390.000 1.870326
390.100 1.896142
390.200 1.925223
390.300 1.943620
390.400 1.950742
390.500 1.948071
390.600 1.945697
390.700 1.959347
390.800 1.986053
390.900 2.009496
391.000 2.015727
391.100 2.018991
391.200 2.011276
391.300 1.994955
391.400 1.982493
391.500 1.985460
391.600 1.997329
391.700 2.003561
391.800 2.001187
391.900 1.989318
392.000 1.987537
392.100 1.989021
392.200 1.983680
392.300 1.971217
392.400 1.965875
392.500 1.970623
392.600 1.965579
392.700 1.965579
392.800 1.956973
392.900 1.945994
393.000 1.931454
393.100 1.886350
393.200 1.783680
393.300 1.651039
393.400 1.637685
393.500 1.724926
393.600 1.837685
393.700 1.903264
393.800 1.940950
393.900 1.961128
394.000 1.979525
394.100 1.991988
394.200 1.992582
394.300 1.978042
394.400 1.962908
394.500 1.945697
394.600 1.937685
394.700 1.939763
394.800 1.941840
394.900 1.937982
395.000 1.929970
395.100 1.919288
395.200 1.909496
395.300 1.906825
395.400 1.904451
395.500 1.891098
395.600 1.873294
395.700 1.855786
395.800 1.847181
395.900 1.833234
396.000 1.804154
396.100 1.770920
396.200 1.724036
396.300 1.680415
396.400 1.616914
396.500 1.536795
396.600 1.430861
396.700 1.251929
396.800 1.081306
396.900 0.967062
397.000 0.946291
397.100 1.024332
397.200 1.169733
397.300 1.304451
397.400 1.438576
397.500 1.533531
397.600 1.609496
397.700 1.671217
397.800 1.702967
397.900 1.745994
398.000 1.772107
398.100 1.797033
398.200 1.814243
398.300 1.826409
398.400 1.845401
398.500 1.860831
398.600 1.865579
398.700 1.858754
398.800 1.882493
398.900 1.891691
399.000 1.901187
399.100 1.908012
399.200 1.909199
399.300 1.912166
399.400 1.910979
399.500 1.914540
399.600 1.910682
399.700 1.909199
399.800 1.910386
399.900 1.914540
400.000 1.903858
400.100 1.890801
400.200 1.887537
400.300 1.883086
400.400 1.884273
400.500 1.886350
400.600 1.889318
400.700 1.889614
400.800 1.889021
400.900 1.883086
401.000 1.881306
401.100 1.888131
401.200 1.896142
401.300 1.901780
401.400 1.903561
401.500 1.906825
401.600 1.915134
401.700 1.925519
401.800 1.933234
401.900 1.936795
402.000 1.935015
402.100 1.927300
402.200 1.915430
402.300 1.885757
402.400 1.844807
402.500 1.807715
402.600 1.798516
402.700 1.820178
402.800 1.856380
402.900 1.883680
403.000 1.905638
403.100 1.912463
403.200 1.916320
403.300 1.916024
403.400 1.917507
403.500 1.924629
403.600 1.929080
403.700 1.930564
403.800 1.932047
403.900 1.929970
404.000 1.931454
404.100 1.932641
404.200 1.926706
404.300 1.919288
404.400 1.907122
404.500 1.894362
404.600 1.889021
404.700 1.897923
404.800 1.908902
404.900 1.916914
405.000 1.918398
405.100 1.916024
405.200 1.912760
405.300 1.903858
405.400 1.900593
405.500 1.907418
405.600 1.910682
405.700 1.912166
405.800 1.911869
405.900 1.913056
406.000 1.912166
406.100 1.901780
406.200 1.889614
406.300 1.880415
406.400 1.860237
406.500 1.815134
406.600 1.813650
406.700 1.822255
406.800 1.821958
406.900 1.819881
407.000 1.810979
407.100 1.799407
407.200 1.794955
407.300 1.792878
407.400 1.796439
407.500 1.794065
407.600 1.781009
407.700 1.771217
407.800 1.767656
407.900 1.778042
408.000 1.789614
408.100 1.794659
408.200 1.791691
408.300 1.783086
408.400 1.770030
408.500 1.759050
408.600 1.747478
408.700 1.744214
408.800 1.737092
408.900 1.729970
409.000 1.712760
409.100 1.697626
409.200 1.679525
409.300 1.646884
409.400 1.612166
409.500 1.558457
409.600 1.500890
409.700 1.435608
409.800 1.341246
409.900 1.234718
410.000 1.102374
410.100 0.991691
410.200 0.964985
410.300 1.034421
410.400 1.161424
410.500 1.300593
410.600 1.393769
410.700 1.466766
410.800 1.523145
410.900 1.559941
411.000 1.596142
411.100 1.623442
411.200 1.652226
411.300 1.672107
411.400 1.691988
411.500 1.709792
411.600 1.724036
411.700 1.727003
411.800 1.720475
411.900 1.716914
412.000 1.713947
412.100 1.717804
412.200 1.723739
412.300 1.733828
412.400 1.746291
412.500 1.757567
412.600 1.748368
412.700 1.728783
412.800 1.713650
412.900 1.706231
413.000 1.707122
413.100 1.716320
413.200 1.726706
413.300 1.740653
413.400 1.759941
413.500 1.768546
413.600 1.773887
413.700 1.775074
413.800 1.780712
413.900 1.784273
414.000 1.784273
414.100 1.777151
414.200 1.759347
414.300 1.743027
414.400 1.733234
414.500 1.743323
414.600 1.759050
414.700 1.770326
