# Wavelength (nm)   F_lamA (normalized erg/cm2/s/A)9.100 0.000282
9.400 0.000329
9.600 0.000364
9.800 0.000402
10.000 0.000442
10.200 0.000486
10.400 0.000533
10.600 0.000584
10.800 0.000638
11.000 0.000697
11.400 0.000827
11.800 0.000977
12.100 0.001105
12.500 0.001297
12.700 0.001404
12.800 0.001460
13.100 0.001641
13.200 0.001706
13.400 0.001842
13.700 0.002066
14.000 0.002314
14.300 0.002591
14.700 0.003011
15.100 0.003496
15.500 0.004056
15.900 0.004703
16.200 0.005252
16.600 0.006080
17.000 0.007029
17.300 0.007834
17.700 0.009037
18.000 0.010041
18.200 0.010770
18.600 0.012359
19.100 0.014629
19.400 0.016149
19.800 0.018377
20.200 0.020846
20.500 0.022861
21.000 0.026554
21.600 0.031547
22.000 0.035227
22.300 0.038184
22.700 0.042380
23.000 1.125172
23.400 1.231087
24.000 1.566713
24.600 2.115543
25.200 2.568088
25.700 1.999312
26.000 2.828061
26.400 3.552957
26.900 3.613480
27.400 3.667125
27.900 3.526135
28.400 3.705640
29.000 3.685695
29.600 3.390646
30.100 2.364512
30.800 2.925034
31.800 3.626547
32.800 3.633425
33.800 3.559835
34.800 3.493122
35.700 3.541265
36.600 3.580468
37.500 3.519257
38.500 3.331499
39.500 3.414030
40.500 3.416781
41.400 3.370014
42.200 3.284044
43.000 3.228336
44.100 3.231087
45.100 3.176066
46.000 3.088721
47.000 3.033012
48.000 3.004814
49.000 2.909216
50.000 2.900275
50.600 3.117607
51.200 3.689133
52.000 3.617607
53.000 3.551582
54.000 3.365887
55.000 3.323934
56.000 3.411279
57.000 3.366575
58.000 3.261348
59.000 3.245530
60.000 3.149931
61.000 3.060523
62.000 3.091472
63.000 3.024759
64.000 2.992435
65.000 2.925722
65.800 2.852132
66.500 2.856259
67.500 2.825309
68.500 2.722834
69.500 2.727648
70.500 2.622421
71.600 2.637552
72.600 2.598349
73.500 2.563274
74.500 2.508253
75.500 2.462173
76.500 2.400275
77.500 2.378955
78.500 2.337001
79.500 2.301238
80.500 2.270977
81.500 2.238652
82.500 2.209766
83.500 2.117607
84.500 2.136176
85.500 2.097662
86.500 2.076341
87.500 2.045392
88.500 2.013067
89.500 1.980743
90.500 1.936726
91.500 2.069464
92.500 3.590784
93.500 5.017194
94.500 7.352132
95.500 8.383769
96.500 9.766162
97.500 5.936039
98.500 10.323246
99.500 10.165062
100.500 10.495186
101.500 9.339752
102.500 5.431224
103.500 8.569464
104.500 10.041265
105.500 10.151307
106.500 9.697387
107.500 9.862448
108.500 9.229711
109.500 9.614856
110.500 9.305365
111.500 9.140303
112.500 8.707015
113.500 8.789546
114.500 8.445667
115.500 8.328748
116.500 8.156809
117.500 7.297111
118.500 7.537827
119.500 6.918845
120.500 6.072902
121.500 3.708391
122.500 5.795048
123.500 6.499312
124.500 6.644429
125.500 6.698074
126.500 6.565337
127.500 6.640303
128.500 6.601788
129.500 6.373453
130.500 6.265475
131.500 6.337001
132.500 6.192572
133.500 6.036451
134.500 6.061210
135.500 5.953920
136.500 5.824622
137.500 5.738652
138.500 5.676066
139.500 5.418845
140.500 5.320495
141.500 5.397524
142.500 5.300550
143.500 5.216644
144.200 5.189133
144.700 5.144429
145.500 5.077717
146.500 4.974553
147.500 4.904402
148.500 4.830124
149.500 4.746905
150.500 4.670564
151.200 4.606602
151.700 4.581843
152.500 4.503439
153.500 4.370014
154.500 4.297111
155.500 4.208391
156.500 4.160935
157.500 4.152682
158.500 4.119670
159.500 4.085282
160.500 3.953920
161.500 3.905777
162.500 3.827373
163.500 3.775103
164.500 3.686382
165.500 3.654746
166.500 3.691197
167.200 3.578404
167.700 3.618982
168.500 3.600413
169.500 3.527510
170.500 3.465612
171.500 3.414718
172.500 3.365199
173.500 3.364512
174.500 3.297799
175.500 3.279230
176.500 3.175378
177.500 3.185695
178.500 3.141678
179.500 3.122421
180.500 3.096974
181.500 3.047455
182.500 3.002751
183.500 2.966988
184.500 2.888583
185.500 2.846630
186.500 2.825309
187.500 2.814993
188.500 2.755846
189.500 2.710454
190.500 2.703576
191.500 2.652682
192.500 2.621045
193.500 2.592847
194.500 2.597662
195.500 2.539890
196.700 2.536451
197.600 2.510316
198.400 2.474553
199.500 2.425034
200.500 2.407840
201.500 2.381706
202.500 2.354883
203.500 2.338377
204.500 2.319120
205.500 2.160248
206.500 2.179505
207.400 2.261348
207.800 2.241403
208.500 2.232462
209.500 2.195323
210.500 2.178817
211.500 2.166437
212.500 2.146492
213.500 2.103851
214.500 2.099037
215.500 2.079780
216.500 2.035076
217.500 2.020633
218.500 2.004814
219.500 2.011692
220.500 1.975241
221.500 1.931912
222.500 1.918845
223.500 1.934663
224.500 1.898212
225.500 1.856946
226.500 1.838377
227.500 1.841816
228.500 1.833563
229.500 1.789546
230.500 1.786795
231.500 1.774415
232.500 1.666437
233.500 1.729023
234.500 1.673315
235.500 1.707015
236.500 1.653370
237.500 1.664374
238.500 1.594223
239.500 1.621733
240.500 1.600413
241.500 1.590784
242.500 1.608666
243.500 1.581155
244.500 1.581843
245.500 1.568776
246.500 1.547455
247.500 1.524072
248.500 1.513755
249.500 1.480055
250.500 1.517882
251.300 1.461486
251.800 1.460798
252.500 1.437414
253.500 1.427785
254.500 1.421596
255.500 1.442228
256.500 1.426410
257.500 1.436726
258.500 1.427785
259.500 1.411279
260.500 1.388583
261.500 1.367950
262.500 1.378955
263.500 1.379642
264.500 1.416094
265.500 1.411967
266.500 1.376891
267.500 1.383081
268.500 1.384457
269.500 1.350757
270.500 1.350069
271.500 1.319120
272.500 1.308116
273.500 1.313618
274.500 1.257909
275.500 1.265475
276.500 1.281981
277.500 1.295736
278.500 1.273040
279.500 1.142366
280.500 1.175378
281.500 1.277854
282.500 1.269601
283.500 1.255158
284.500 1.239340
285.500 1.200825
286.500 1.232462
287.500 1.226272
288.500 1.226272
289.500 1.222146
291.000 1.232462
293.000 1.209766
295.000 1.189821
297.000 1.183631
299.000 1.174691
301.000 1.164374
303.000 1.153370
305.000 1.143741
307.000 1.127923
309.000 1.116231
311.000 1.103851
313.000 1.090784
315.000 1.080468
317.000 1.074966
319.000 1.046768
321.000 1.048143
323.000 1.030261
325.000 1.036451
327.000 1.039890
329.000 1.030949
331.000 1.023384
332.200 0.947730
332.300 0.935351
332.400 0.930536
332.500 0.933287
332.600 0.927098
332.700 0.915406
332.800 0.922971
332.900 0.931912
333.000 0.945667
333.100 0.954608
333.200 0.949106
333.300 0.942228
333.400 0.928473
333.500 0.922283
333.600 0.911279
333.700 0.900963
333.800 0.905777
333.900 0.912655
334.000 0.915406
334.100 0.919532
334.200 0.917469
334.300 0.933975
334.400 0.951857
334.500 0.953920
334.600 0.951169
334.700 0.933287
334.800 0.909216
334.900 0.885832
335.000 0.879642
335.100 0.887208
335.200 0.891334
335.300 0.896836
335.400 0.903714
335.500 0.916781
335.600 0.920220
335.700 0.911967
335.800 0.885832
335.900 0.859697
336.000 0.843879
336.100 0.847318
336.200 0.867950
336.300 0.887895
336.400 0.901651
336.500 0.890646
336.600 0.878955
336.700 0.873453
336.800 0.868638
336.900 0.869326
337.000 0.857634
337.100 0.843879
337.200 0.833563
337.300 0.843191
337.400 0.863824
337.500 0.892710
337.600 0.909216
337.700 0.899587
337.800 0.883081
337.900 0.870702
338.000 0.874828
338.100 0.886520
338.200 0.895461
338.300 0.903714
338.400 0.907840
338.500 0.914030
338.600 0.909904
338.700 0.893398
338.800 0.882393
338.900 0.896149
339.000 0.911967
339.100 0.923659
339.200 0.915406
339.300 0.899587
339.400 0.907153
339.500 0.920220
339.600 0.934663
339.700 0.939477
339.800 0.940853
339.900 0.930536
340.000 0.918157
340.100 0.912655
340.200 0.894773
340.300 0.889271
340.400 0.885144
340.500 0.891334
340.600 0.888583
340.700 0.882393
340.800 0.877579
340.900 0.882393
341.000 0.895461
341.100 0.887895
341.200 0.885144
341.300 0.885832
341.400 0.893398
341.500 0.905089
341.600 0.910591
341.700 0.912655
341.800 0.916781
341.900 0.922283
342.000 0.926410
342.100 0.927098
342.200 0.915406
342.300 0.900275
342.400 0.894085
342.500 0.897524
342.600 0.903714
342.700 0.911967
342.800 0.925034
342.900 0.937414
343.000 0.938790
343.100 0.926410
343.200 0.911967
343.300 0.906465
343.400 0.914718
343.500 0.929849
343.600 0.933975
343.700 0.926410
343.800 0.916094
343.900 0.904402
344.000 0.892022
344.100 0.877579
344.200 0.870014
344.300 0.870702
344.400 0.876891
344.500 0.884457
344.600 0.899587
344.700 0.918845
344.800 0.935351
344.900 0.946355
345.000 0.923659
345.100 0.892710
345.200 0.872077
345.300 0.866575
345.400 0.878267
345.500 0.885144
345.600 0.885144
345.700 0.885832
345.800 0.883081
345.900 0.881706
346.000 0.873453
346.100 0.866575
346.200 0.874140
346.300 0.886520
346.400 0.885832
346.500 0.879642
346.600 0.881018
346.700 0.892022
346.800 0.905089
346.900 0.915406
347.000 0.920908
347.100 0.914718
347.200 0.904402
347.300 0.886520
347.400 0.874140
347.500 0.867950
347.600 0.868638
347.700 0.879642
347.800 0.887895
347.900 0.892710
348.000 0.901651
348.100 0.903026
348.200 0.894773
348.300 0.886520
348.400 0.885832
348.500 0.900963
348.600 0.917469
348.700 0.920908
348.800 0.916094
348.900 0.901651
349.000 0.888583
349.100 0.894085
349.200 0.907153
349.300 0.908528
349.400 0.903026
349.500 0.892710
349.600 0.883769
349.700 0.888583
349.800 0.887895
349.900 0.888583
350.000 0.879642
350.100 0.873453
350.200 0.881018
350.300 0.884457
350.400 0.881706
350.500 0.873453
350.600 0.867950
350.700 0.867263
350.800 0.865887
350.900 0.868638
351.000 0.871389
351.100 0.873453
351.200 0.870702
351.300 0.863136
351.400 0.862448
351.500 0.872077
351.600 0.890646
351.700 0.901651
351.800 0.903026
351.900 0.891334
352.000 0.882393
352.100 0.876891
352.200 0.871389
352.300 0.867263
352.400 0.861073
352.500 0.856259
352.600 0.861761
352.700 0.869326
352.800 0.879642
352.900 0.891334
353.000 0.901651
353.100 0.910591
353.200 0.910591
353.300 0.895461
353.400 0.881706
353.500 0.876204
353.600 0.886520
353.700 0.898900
353.800 0.904402
353.900 0.909904
354.000 0.910591
354.100 0.907840
354.200 0.907840
354.300 0.914718
354.400 0.920908
354.500 0.918845
354.600 0.916094
354.700 0.911967
354.800 0.910591
354.900 0.909904
355.000 0.914030
355.100 0.923659
355.200 0.922283
355.300 0.909904
355.400 0.898900
355.500 0.898212
355.600 0.906465
355.700 0.919532
355.800 0.925722
355.900 0.922971
356.000 0.916781
356.100 0.915406
356.200 0.914030
356.300 0.905089
356.400 0.891334
356.500 0.880330
356.600 0.878267
356.700 0.878955
356.800 0.878955
356.900 0.874140
357.000 0.864512
357.100 0.848006
357.200 0.840440
357.300 0.839065
357.400 0.842503
357.500 0.850757
357.600 0.859697
357.700 0.864512
357.800 0.867950
357.900 0.863824
358.000 0.856259
358.100 0.848006
358.200 0.841816
358.300 0.843191
358.400 0.839752
358.500 0.828748
358.600 0.813618
358.700 0.806052
358.800 0.812930
358.900 0.831499
359.000 0.849381
359.100 0.855571
359.200 0.852820
359.300 0.852132
359.400 0.855571
359.500 0.865887
359.600 0.874140
359.700 0.878267
359.800 0.879642
359.900 0.881706
360.000 0.883769
360.100 0.874828
360.200 0.867950
360.300 0.862448
360.400 0.864512
360.500 0.867263
360.600 0.866575
360.700 0.861761
360.800 0.859010
360.900 0.861761
361.000 0.863136
361.100 0.863824
361.200 0.867263
361.300 0.869326
361.400 0.873453
361.500 0.886520
361.600 0.889959
361.700 0.885832
361.800 0.875516
361.900 0.865887
362.000 0.870014
362.100 0.878955
362.200 0.888583
362.300 0.893398
362.400 0.895461
362.500 0.907153
362.600 0.922283
362.700 0.935351
362.800 0.929849
362.900 0.911967
363.000 0.887208
363.100 0.872765
363.200 0.876891
363.300 0.893398
363.400 0.904402
363.500 0.900963
363.600 0.889959
363.700 0.889959
363.800 0.898212
363.900 0.904402
364.000 0.906465
364.100 0.902338
364.200 0.893398
364.300 0.885144
364.400 0.878267
364.500 0.877579
364.600 0.874828
364.700 0.874140
364.800 0.875516
364.900 0.873453
365.000 0.873453
365.100 0.874828
365.200 0.883769
365.300 0.891334
365.400 0.900963
365.500 0.909216
365.600 0.916781
365.700 0.918845
365.800 0.916781
365.900 0.914718
366.000 0.911279
366.100 0.903714
366.200 0.896149
366.300 0.893398
366.400 0.896836
366.500 0.900963
366.600 0.901651
366.700 0.897524
366.800 0.890646
366.900 0.886520
367.000 0.887208
367.100 0.892022
367.200 0.900275
367.300 0.903026
367.400 0.898900
367.500 0.892022
367.600 0.879642
367.700 0.868638
367.800 0.862448
367.900 0.864512
368.000 0.871389
368.100 0.876204
368.200 0.876204
368.300 0.873453
368.400 0.872077
368.500 0.864512
368.600 0.858322
368.700 0.861073
368.800 0.881018
368.900 0.903714
369.000 0.903026
369.100 0.889959
369.200 0.887208
369.300 0.896836
369.400 0.909904
369.500 0.913343
369.600 0.896836
369.700 0.881018
369.800 0.889959
369.900 0.921596
370.000 0.958735
370.100 0.959422
370.200 0.918157
370.300 0.856946
370.400 0.823246
370.500 0.823246
370.600 0.856259
370.700 0.895461
370.800 0.922971
370.900 0.913343
371.000 0.872765
371.100 0.834250
371.200 0.814993
371.300 0.838377
371.400 0.894773
371.500 0.962173
371.600 1.004814
371.700 1.025447
371.800 1.009629
371.900 0.949794
372.000 0.856946
372.100 0.790922
372.200 0.766162
372.300 0.801926
372.400 0.881018
372.500 0.958047
372.600 1.004127
372.700 1.039890
372.800 1.056396
372.900 1.059835
373.000 1.044704
373.100 0.994498
373.200 0.901651
373.300 0.814305
373.400 0.741403
373.500 0.728336
373.600 0.775103
373.700 0.861761
373.800 0.945667
373.900 1.039202
374.000 1.092160
374.100 1.125172
374.200 1.126547
374.300 1.112792
374.400 1.085282
374.500 1.048831
374.600 0.997937
374.700 0.935351
374.800 0.859010
374.900 0.779230
375.000 0.744842
375.100 0.760660
375.200 0.823246
375.300 0.922971
375.400 1.013755
375.500 1.070839
375.600 1.112105
375.700 1.120358
375.800 1.121733
375.900 1.122421
376.000 1.123796
376.100 1.133425
376.200 1.144429
376.300 1.138927
376.400 1.122421
376.500 1.086657
376.600 1.041265
376.700 0.984869
376.800 0.896149
376.900 0.813618
377.000 0.745530
377.100 0.733838
377.200 0.787483
377.300 0.878267
377.400 0.953232
377.500 1.024072
377.600 1.074278
377.700 1.123796
377.800 1.176754
377.900 1.215268
378.000 1.255158
378.100 1.275791
378.200 1.286795
378.300 1.288171
378.400 1.287483
378.500 1.281981
378.600 1.272352
378.700 1.251032
378.800 1.232462
378.900 1.214580
379.000 1.191884
379.100 1.166437
379.200 1.122421
379.300 1.072215
379.400 1.005502
379.500 0.915406
379.600 0.828748
379.700 0.739340
379.800 0.702201
379.900 0.734525
380.000 0.825997
380.100 0.922971
380.200 1.022008
380.300 1.079092
380.400 1.135488
380.500 1.170564
380.600 1.198074
380.700 1.230399
380.800 1.258597
380.900 1.292985
381.000 1.317056
381.100 1.330124
381.200 1.320495
381.300 1.304677
381.400 1.291609
381.500 1.292297
381.600 1.303301
381.700 1.315681
381.800 1.314305
381.900 1.288858
382.000 1.267538
382.100 1.258597
382.200 1.265475
382.300 1.262036
382.400 1.235901
382.500 1.207703
382.600 1.175378
382.700 1.150619
382.800 1.114856
382.900 1.074966
383.000 1.035076
383.100 0.973177
383.200 0.908528
383.300 0.813618
383.400 0.721458
383.500 0.675103
383.600 0.675241
383.700 0.725585
383.800 0.806052
383.900 0.885144
384.000 0.958047
384.100 1.035763
384.200 1.094911
384.300 1.160248
384.400 1.202201
384.500 1.237964
384.600 1.268226
384.700 1.292985
384.800 1.311554
384.900 1.317056
385.000 1.323934
385.100 1.340440
385.200 1.362448
385.300 1.379642
385.400 1.381018
385.500 1.372765
385.600 1.361761
385.700 1.356946
385.800 1.356259
385.900 1.362448
386.000 1.374828
386.100 1.387208
386.200 1.389959
386.300 1.379642
386.400 1.373453
386.500 1.368638
386.600 1.371389
386.700 1.377579
386.800 1.382393
386.900 1.379642
387.000 1.364512
387.100 1.347318
387.200 1.321183
387.300 1.308116
387.400 1.303989
387.500 1.304677
387.600 1.295048
387.700 1.266162
387.800 1.240028
387.900 1.217331
388.000 1.206327
388.100 1.188446
388.200 1.150619
388.300 1.110729
388.400 1.052957
388.500 0.986933
388.600 0.903026
388.700 0.796424
388.800 0.719395
388.900 0.686176
389.000 0.720770
389.100 0.806052
389.200 0.903026
389.300 0.971114
389.400 1.035076
389.500 1.079092
389.600 1.129298
389.700 1.169876
389.800 1.200138
389.900 1.223521
390.000 1.240028
390.100 1.267538
390.200 1.289546
390.300 1.307428
390.400 1.313618
390.500 1.317056
390.600 1.328748
390.700 1.350757
390.800 1.381706
390.900 1.407840
391.000 1.420908
391.100 1.425034
391.200 1.421596
391.300 1.411967
391.400 1.400963
391.500 1.402338
391.600 1.411967
391.700 1.414718
391.800 1.411967
391.900 1.404402
392.000 1.403026
392.100 1.404402
392.200 1.404402
392.300 1.405777
392.400 1.405089
392.500 1.404402
392.600 1.390646
392.700 1.372077
392.800 1.340440
392.900 1.305365
393.000 1.259285
393.100 1.180193
393.200 1.069464
393.300 0.962861
393.400 0.949106
393.500 1.030261
393.600 1.145117
393.700 1.240715
393.800 1.313618
393.900 1.350757
394.000 1.373453
394.100 1.387895
394.200 1.391334
394.300 1.387208
394.400 1.383769
394.500 1.378267
394.600 1.378267
394.700 1.376891
394.800 1.370702
394.900 1.362448
395.000 1.355571
395.100 1.347318
395.200 1.339065
395.300 1.339065
395.400 1.334250
395.500 1.319807
395.600 1.301238
395.700 1.279917
395.800 1.268913
395.900 1.252407
396.000 1.221458
396.100 1.184319
396.200 1.134801
396.300 1.092160
396.400 1.034388
396.500 0.955296
396.600 0.851444
396.700 0.707703
396.800 0.593948
396.900 0.527373
397.000 0.542228
397.100 0.619532
397.200 0.733838
397.300 0.831499
397.400 0.930536
397.500 1.000000
397.600 1.065337
397.700 1.117607
397.800 1.156809
397.900 1.200138
398.000 1.224209
398.100 1.246905
398.200 1.264787
398.300 1.282669
398.400 1.304677
398.500 1.322558
398.600 1.337689
398.700 1.347318
398.800 1.366575
398.900 1.376204
399.000 1.382393
399.100 1.391334
399.200 1.396836
399.300 1.407153
399.400 1.411967
399.500 1.412655
399.600 1.404402
399.700 1.397524
399.800 1.397524
399.900 1.408528
400.000 1.414718
400.100 1.417469
400.200 1.417469
400.300 1.411279
400.400 1.405089
400.500 1.398212
400.600 1.400963
400.700 1.410591
400.800 1.423659
400.900 1.429849
401.000 1.432600
401.100 1.433287
401.200 1.433287
401.300 1.433287
401.400 1.433287
401.500 1.439477
401.600 1.446355
401.700 1.453920
401.800 1.461486
401.900 1.465612
402.000 1.466300
402.100 1.462861
402.200 1.455983
402.300 1.444292
402.400 1.428473
402.500 1.418845
402.600 1.419532
402.700 1.433287
402.800 1.442228
402.900 1.445667
403.000 1.440853
403.100 1.436039
403.200 1.434663
403.300 1.436039
403.400 1.442228
403.500 1.455296
403.600 1.467675
403.700 1.480743
403.800 1.482118
403.900 1.475928
404.000 1.469739
404.100 1.466988
404.200 1.466300
404.300 1.460798
404.400 1.440165
404.500 1.420220
404.600 1.412655
404.700 1.427785
404.800 1.447043
404.900 1.460798
405.000 1.462173
405.100 1.463549
405.200 1.460798
405.300 1.451169
405.400 1.442228
405.500 1.441541
405.600 1.443604
405.700 1.447730
405.800 1.449106
405.900 1.456671
406.000 1.460798
406.100 1.451857
406.200 1.430536
406.300 1.411279
406.400 1.398900
406.500 1.383769
406.600 1.385144
406.700 1.389959
406.800 1.390646
406.900 1.389271
407.000 1.379642
407.100 1.360385
407.200 1.351444
407.300 1.353508
407.400 1.359697
407.500 1.359010
407.600 1.341128
407.700 1.324622
407.800 1.316369
407.900 1.325997
408.000 1.340440
408.100 1.346630
408.200 1.343879
408.300 1.333563
408.400 1.321871
408.500 1.309491
408.600 1.301238
408.700 1.297799
408.800 1.291609
408.900 1.284044
409.000 1.265475
409.100 1.248968
409.200 1.231774
409.300 1.201513
409.400 1.173315
409.500 1.127923
409.600 1.084594
409.700 1.034388
409.800 0.967675
409.900 0.892710
410.000 0.790234
410.100 0.716644
410.200 0.696011
410.300 0.750344
410.400 0.838377
410.500 0.935351
410.600 0.996561
410.700 1.051582
410.800 1.092160
410.900 1.124484
411.000 1.159560
411.100 1.184319
411.200 1.213205
411.300 1.234525
411.400 1.256534
411.500 1.277854
411.600 1.291609
411.700 1.297799
411.800 1.296424
411.900 1.297111
412.000 1.301238
412.100 1.308803
412.200 1.317744
412.300 1.327373
412.400 1.339065
412.500 1.347318
412.600 1.347318
412.700 1.342503
412.800 1.338377
412.900 1.337689
413.000 1.336314
413.100 1.334250
413.200 1.332875
413.300 1.339065
413.400 1.355571
413.500 1.367950
413.600 1.376891
413.700 1.385144
413.800 1.394085
413.900 1.402338
414.000 1.400963
414.100 1.389959
414.200 1.374828
414.300 1.359697
414.400 1.357634
414.500 1.365199
414.600 1.378955
414.700 1.383769
414.800 1.385144
414.900 1.386520
415.000 1.389959
415.100 1.394773
415.200 1.393398
415.300 1.387895
415.400 1.382393
415.500 1.380330
