# Wavelength (nm)   F_lamA (normalized erg/cm2/s/A)9.100 0.000015
9.400 0.000027
9.600 0.000038
9.800 0.000054
10.000 0.000075
10.200 0.000102
10.400 0.000137
10.600 0.000182
10.800 0.000239
11.000 0.000311
11.400 0.000510
11.800 0.000807
12.100 0.001114
12.500 0.001670
12.700 0.002024
12.800 0.002223
13.100 0.002917
13.200 0.003185
13.400 0.003781
13.700 0.004842
14.000 0.006131
14.300 0.007684
14.700 0.010225
15.100 0.013395
15.500 0.017295
15.900 0.022030
16.200 0.026196
16.600 0.032657
17.000 0.040273
17.300 0.046814
17.700 0.056717
18.000 0.065112
18.200 0.071196
18.600 0.084591
19.100 0.103692
19.400 0.116613
19.800 0.135474
20.200 0.156260
20.500 0.173274
21.000 0.204254
21.600 0.245907
22.000 0.276565
22.300 0.300963
22.700 0.335634
23.000 8.290530
23.400 9.293740
24.000 11.958266
24.600 16.163724
25.200 20.353130
25.700 16.187801
26.000 22.608347
26.400 28.539326
26.900 29.422151
27.400 30.024077
27.900 28.138042
28.400 30.930979
29.000 30.914928
29.600 27.953451
30.100 18.258427
30.800 22.552167
31.800 28.996790
32.800 29.077047
33.800 28.282504
34.800 27.576244
35.700 28.443018
36.600 29.670947
37.500 29.101124
38.500 26.958266
39.500 28.346709
40.500 28.804173
41.400 28.459069
42.200 27.600321
43.000 26.958266
44.100 27.415730
45.100 27.070626
46.000 26.139647
47.000 25.698234
48.000 25.666132
49.000 24.646870
50.000 24.903692
50.600 27.054575
51.200 33.996790
52.000 33.089888
53.000 32.215088
54.000 30.016051
55.000 29.598716
56.000 31.372392
57.000 31.099518
58.000 30.008026
59.000 29.991974
60.000 28.860353
61.000 28.049759
62.000 28.932584
63.000 28.226324
64.000 28.097913
65.000 27.423756
65.800 26.637239
66.500 26.886035
67.500 26.749599
68.500 25.545746
69.500 25.866774
70.500 24.590690
71.600 25.176565
72.600 24.863563
73.500 24.590690
74.500 24.028892
75.500 23.595506
76.500 22.913323
77.500 22.841091
78.500 22.463884
79.500 22.199037
80.500 21.942215
81.500 21.701445
82.500 21.460674
83.500 20.288925
84.500 20.786517
85.500 20.425361
86.500 20.288925
87.500 20.024077
88.500 19.727127
89.500 19.438202
90.500 19.020867
91.500 19.598716
92.500 36.958266
93.500 51.725522
94.500 71.821830
95.500 78.571429
96.500 89.245586
97.500 55.995185
98.500 87.158909
99.500 81.861958
100.500 85.313002
101.500 81.540931
102.500 54.398074
103.500 75.770465
104.500 82.343499
105.500 80.497592
106.500 75.593900
107.500 76.019262
108.500 70.505618
109.500 73.908507
110.500 71.195827
111.500 69.847512
112.500 66.139647
113.500 67.311396
114.500 64.839486
115.500 63.988764
116.500 62.857143
117.500 55.264848
118.500 59.414125
119.500 56.926164
120.500 52.953451
121.500 36.717496
122.500 51.476726
123.500 53.443018
124.500 52.664526
125.500 52.022472
126.500 50.939005
127.500 50.497592
128.500 49.590690
129.500 47.359551
130.500 46.693419
131.500 46.725522
132.500 45.377207
133.500 44.044944
134.500 43.876404
135.500 43.089888
136.500 41.918138
137.500 41.075441
138.500 40.441413
139.500 37.439807
140.500 36.356340
141.500 38.130016
142.500 37.078652
143.500 36.741573
144.200 36.340289
144.700 35.955056
145.500 35.313002
146.500 34.598716
147.500 33.988764
148.500 33.451043
149.500 32.760835
150.500 32.022472
151.200 31.436597
151.700 31.243981
152.500 30.746388
153.500 29.414125
154.500 28.258427
155.500 27.768860
156.500 28.041734
157.500 27.921348
158.500 27.584270
159.500 27.166934
160.500 26.219904
161.500 25.738363
162.500 25.369181
163.500 24.967897
164.500 24.036918
165.500 24.390048
166.500 24.109149
167.200 23.499197
167.700 23.844302
168.500 23.483146
169.500 23.009631
170.500 22.520064
171.500 21.918138
172.500 21.605136
173.500 21.540931
174.500 21.115570
175.500 20.834671
176.500 20.337079
177.500 20.128411
178.500 19.879615
179.500 19.598716
180.500 19.349920
181.500 18.916533
182.500 18.667737
183.500 18.386838
184.500 17.825040
185.500 17.471910
186.500 17.319422
187.500 17.207063
188.500 16.653291
189.500 16.252006
190.500 16.308186
191.500 15.890851
192.500 15.545746
193.500 15.537721
194.500 15.441413
195.500 14.919743
196.700 14.919743
197.600 14.847512
198.400 14.518459
199.500 14.165329
200.500 14.117175
201.500 13.972713
202.500 13.844302
203.500 13.531300
204.500 13.338684
205.500 11.805778
206.500 12.174960
207.400 12.945425
207.800 12.760835
208.500 12.696629
209.500 12.447833
210.500 12.367576
211.500 12.263242
212.500 12.134831
213.500 11.934189
214.500 11.733547
215.500 11.661316
216.500 11.420546
217.500 11.324238
218.500 11.123596
219.500 11.059390
220.500 10.890851
221.500 10.666132
222.500 10.569823
223.500 10.457464
224.500 10.313002
225.500 10.088283
226.500 10.032103
227.500 9.911717
228.500 9.791332
229.500 9.558587
230.500 9.446228
231.500 9.382022
232.500 8.924559
233.500 9.125201
234.500 8.980738
235.500 8.908507
236.500 8.764045
237.500 8.667737
238.500 8.443018
239.500 8.434992
240.500 8.330658
241.500 8.226324
242.500 8.146067
243.500 8.023274
244.500 7.937400
245.500 7.843499
246.500 7.735955
247.500 7.640449
248.500 7.556982
249.500 7.266453
250.500 7.370787
251.300 7.099518
251.800 7.239165
252.500 7.174960
253.500 7.081862
254.500 6.989567
255.500 6.936597
256.500 6.849117
257.500 6.784109
258.500 6.705457
259.500 6.621188
260.500 6.539326
261.500 6.459872
262.500 6.392456
263.500 6.318620
264.500 6.283307
265.500 6.210273
266.500 6.121990
267.500 6.057785
268.500 6.009631
269.500 5.908507
270.500 5.866774
271.500 5.792135
272.500 5.701445
273.500 5.613162
274.500 5.573034
275.500 5.516854
276.500 5.444623
277.500 5.423756
278.500 5.358748
279.500 5.241573
280.500 5.215088
281.500 5.192616
282.500 5.110754
283.500 5.053772
284.500 5.016051
285.500 4.961477
286.500 4.916533
287.500 4.861156
288.500 4.812199
289.500 4.760835
291.000 4.691011
293.000 4.587480
295.000 4.472713
297.000 4.400482
299.000 4.308989
301.000 4.207865
303.000 4.109149
305.000 4.012039
307.000 3.918138
309.000 3.825843
311.000 3.739165
313.000 3.650883
315.000 3.569823
317.000 3.490369
319.000 3.391653
321.000 3.322632
323.000 3.262440
325.000 3.193419
327.000 3.126806
329.000 3.059390
331.000 2.997592
332.200 2.995987
332.300 3.012841
332.400 2.994382
332.500 2.981541
332.600 2.967095
332.700 2.959872
332.800 2.951043
332.900 2.949438
333.000 2.946228
333.100 2.942215
333.200 2.930979
333.300 2.906100
333.400 2.889246
333.500 2.874799
333.600 2.865971
333.700 2.855538
333.800 2.833868
333.900 2.822632
334.000 2.807384
334.100 2.829856
334.200 2.851525
334.300 2.902087
334.400 2.932584
334.500 2.958266
334.600 2.983949
334.700 2.991974
334.800 2.952648
334.900 2.881220
335.000 2.764848
335.100 2.757624
335.200 2.788925
335.300 2.802568
335.400 2.794543
335.500 2.773676
335.600 2.774478
335.700 2.782504
335.800 2.798555
335.900 2.811396
336.000 2.821027
336.100 2.813002
336.200 2.815409
336.300 2.800963
336.400 2.794543
336.500 2.765650
336.600 2.740770
336.700 2.719101
336.800 2.711878
336.900 2.723917
337.000 2.756019
337.100 2.756019
337.200 2.722311
337.300 2.710273
337.400 2.718299
337.500 2.755217
337.600 2.770465
337.700 2.735955
337.800 2.726324
337.900 2.727929
338.000 2.760835
338.100 2.789727
338.200 2.800161
338.300 2.792135
338.400 2.780096
338.500 2.791332
338.600 2.808989
338.700 2.814607
338.800 2.808186
338.900 2.789727
339.000 2.789727
339.100 2.794543
339.200 2.809791
339.300 2.820225
339.400 2.847512
339.500 2.846709
339.600 2.826645
339.700 2.789727
339.800 2.760835
339.900 2.700642
340.000 2.668539
340.100 2.683788
340.200 2.666132
340.300 2.651685
340.400 2.656501
340.500 2.663724
340.600 2.658909
340.700 2.670144
340.800 2.686196
340.900 2.696629
341.000 2.695024
341.100 2.655698
341.200 2.657303
341.300 2.682183
341.400 2.711878
341.500 2.727929
341.600 2.726324
341.700 2.722311
341.800 2.727929
341.900 2.735152
342.000 2.731942
342.100 2.729535
342.200 2.722311
342.300 2.725522
342.400 2.725522
342.500 2.716693
342.600 2.723917
342.700 2.727127
342.800 2.740770
342.900 2.742376
343.000 2.718299
343.100 2.716693
343.200 2.711075
343.300 2.716693
343.400 2.719904
343.500 2.728732
343.600 2.732745
343.700 2.725522
343.800 2.716693
343.900 2.700642
344.000 2.661316
344.100 2.645265
344.200 2.645265
344.300 2.667737
344.400 2.682183
344.500 2.660514
344.600 2.650080
344.700 2.645265
344.800 2.664526
344.900 2.682986
345.000 2.624398
345.100 2.580257
345.200 2.560995
345.300 2.560193
345.400 2.572231
345.500 2.573836
345.600 2.574639
345.700 2.573836
345.800 2.568218
345.900 2.562600
346.000 2.555377
346.100 2.552167
346.200 2.565008
346.300 2.624398
346.400 2.592295
346.500 2.589888
346.600 2.601926
346.700 2.599518
346.800 2.590690
346.900 2.585875
347.000 2.593900
347.100 2.568218
347.200 2.562600
347.300 2.583467
347.400 2.588283
347.500 2.579454
347.600 2.560193
347.700 2.511236
347.800 2.465490
347.900 2.448636
348.000 2.469502
348.100 2.502408
348.200 2.488764
348.300 2.463082
348.400 2.467897
348.500 2.513644
348.600 2.538523
348.700 2.553772
348.800 2.587480
348.900 2.595506
349.000 2.582665
349.100 2.577047
349.200 2.594703
349.300 2.593900
349.400 2.582665
349.500 2.569021
349.600 2.549759
349.700 2.554575
349.800 2.569021
349.900 2.562600
350.000 2.521669
350.100 2.483146
350.200 2.489567
350.300 2.501605
350.400 2.482343
350.500 2.453451
350.600 2.443820
350.700 2.452648
350.800 2.471108
350.900 2.474318
351.000 2.475923
351.100 2.476726
351.200 2.468700
351.300 2.454254
351.400 2.459069
351.500 2.471108
351.600 2.484751
351.700 2.472713
351.800 2.471910
351.900 2.481541
352.000 2.485554
352.100 2.479133
352.200 2.468700
352.300 2.467897
352.400 2.488764
352.500 2.472713
352.600 2.465490
352.700 2.462279
352.800 2.467897
352.900 2.483146
353.000 2.491974
353.100 2.499197
353.200 2.512039
353.300 2.499197
353.400 2.474318
353.500 2.468700
353.600 2.472713
353.700 2.455056
353.800 2.451846
353.900 2.452648
354.000 2.467897
354.100 2.477528
354.200 2.477528
354.300 2.472713
354.400 2.480738
354.500 2.485554
354.600 2.475120
354.700 2.479133
354.800 2.486356
354.900 2.484751
355.000 2.472713
355.100 2.466292
355.200 2.473515
355.300 2.480738
355.400 2.476726
355.500 2.467897
355.600 2.457464
355.700 2.460674
355.800 2.463884
355.900 2.459069
356.000 2.450241
356.100 2.460674
356.200 2.472713
356.300 2.465490
356.400 2.448636
356.500 2.448636
356.600 2.455056
356.700 2.437400
356.800 2.444623
356.900 2.434992
357.000 2.406902
357.100 2.348315
357.200 2.329053
357.300 2.330658
357.400 2.326645
357.500 2.329053
357.600 2.342697
357.700 2.341091
357.800 2.332263
357.900 2.324238
358.000 2.331461
358.100 2.342697
358.200 2.341091
358.300 2.332263
358.400 2.327448
358.500 2.321830
358.600 2.315409
358.700 2.307384
358.800 2.297753
358.900 2.300161
359.000 2.319422
359.100 2.325040
359.200 2.314607
359.300 2.313002
359.400 2.316212
359.500 2.315409
359.600 2.310594
359.700 2.313804
359.800 2.317817
359.900 2.322632
360.000 2.337079
360.100 2.335474
360.200 2.343499
360.300 2.334671
360.400 2.323435
360.500 2.319422
360.600 2.320225
360.700 2.322632
360.800 2.332263
360.900 2.341894
361.000 2.343499
361.100 2.321830
361.200 2.317014
361.300 2.309791
361.400 2.296950
361.500 2.295345
361.600 2.310594
361.700 2.321830
361.800 2.337079
361.900 2.348315
362.000 2.331461
362.100 2.327448
362.200 2.346709
362.300 2.345907
362.400 2.337881
362.500 2.337881
362.600 2.350722
362.700 2.358748
362.800 2.349117
362.900 2.336276
363.000 2.341894
363.100 2.347512
363.200 2.341091
363.300 2.332263
363.400 2.348315
363.500 2.340289
363.600 2.291332
363.700 2.272071
363.800 2.275281
363.900 2.277689
364.000 2.284912
364.100 2.294543
364.200 2.302568
364.300 2.289727
364.400 2.268860
364.500 2.266453
364.600 2.262440
364.700 2.264848
364.800 2.271268
364.900 2.275281
365.000 2.274478
365.100 2.264848
365.200 2.260032
365.300 2.256822
365.400 2.252809
365.500 2.255217
365.600 2.261637
365.700 2.255217
365.800 2.247191
365.900 2.239968
366.000 2.229535
366.100 2.228732
366.200 2.227929
366.300 2.237560
366.400 2.240770
366.500 2.231140
366.600 2.225522
366.700 2.216693
366.800 2.214286
366.900 2.221509
367.000 2.226324
367.100 2.223114
367.200 2.216693
367.300 2.207063
367.400 2.203852
367.500 2.197432
367.600 2.204655
367.700 2.194222
367.800 2.186998
367.900 2.186998
368.000 2.190209
368.100 2.201445
368.200 2.200642
368.300 2.195827
368.400 2.191011
368.500 2.181380
368.600 2.166934
368.700 2.166934
368.800 2.188604
368.900 2.218299
369.000 2.209470
369.100 2.174960
369.200 2.179775
369.300 2.203852
369.400 2.219904
369.500 2.207865
369.600 2.166934
369.700 2.143660
369.800 2.146067
369.900 2.198234
370.000 2.255217
370.100 2.256822
370.200 2.193419
370.300 2.091493
370.400 2.044944
370.500 2.045746
370.600 2.118780
370.700 2.188604
370.800 2.241573
370.900 2.213483
371.000 2.137239
371.100 2.053772
371.200 2.008828
371.300 2.034510
371.400 2.113965
371.500 2.237560
371.600 2.299358
371.700 2.324238
371.800 2.312199
371.900 2.225522
372.000 2.078652
372.100 1.997592
372.200 1.955859
372.300 2.006421
372.400 2.096308
372.500 2.205457
372.600 2.252809
372.700 2.314607
372.800 2.340289
372.900 2.346709
373.000 2.325040
373.100 2.253612
373.200 2.125201
373.300 2.003210
373.400 1.902889
373.500 1.890851
373.600 1.963082
373.700 2.105136
373.800 2.209470
373.900 2.328250
374.000 2.386035
374.100 2.421348
374.200 2.422953
374.300 2.400482
374.400 2.378010
374.500 2.343499
374.600 2.270465
374.700 2.158909
374.800 2.030498
374.900 1.873997
375.000 1.833066
375.100 1.871589
375.200 1.982343
375.300 2.085875
375.400 2.204655
375.500 2.267255
375.600 2.325040
375.700 2.332263
375.800 2.324238
375.900 2.309791
376.000 2.293740
376.100 2.285714
376.200 2.332263
376.300 2.349117
376.400 2.329856
376.500 2.284912
376.600 2.214286
376.700 2.137239
376.800 2.013644
376.900 1.870787
377.000 1.763242
377.100 1.731140
377.200 1.825843
377.300 1.972713
377.400 2.093098
377.500 2.191011
377.600 2.258427
377.700 2.302568
377.800 2.341894
377.900 2.360353
378.000 2.381220
378.100 2.394061
378.200 2.403692
378.300 2.391653
378.400 2.382825
378.500 2.392456
378.600 2.393258
378.700 2.385233
378.800 2.374799
378.900 2.356340
379.000 2.329856
379.100 2.296950
379.200 2.256822
379.300 2.206260
379.400 2.132424
379.500 2.004013
379.600 1.857945
379.700 1.712681
379.800 1.649278
379.900 1.714286
380.000 1.880417
380.100 2.018459
380.200 2.135634
380.300 2.201445
380.400 2.247994
380.500 2.289727
380.600 2.296950
380.700 2.314607
380.800 2.338684
380.900 2.361958
381.000 2.385233
381.100 2.396469
381.200 2.386035
381.300 2.367576
381.400 2.354735
381.500 2.348315
381.600 2.338684
381.700 2.325040
381.800 2.291332
381.900 2.250401
382.000 2.231140
382.100 2.241573
382.200 2.294543
382.300 2.313002
382.400 2.309791
382.500 2.291332
382.600 2.263242
382.700 2.256019
382.800 2.237560
382.900 2.195024
383.000 2.142055
383.100 2.067416
383.200 1.971910
383.300 1.834671
383.400 1.655698
383.500 1.573034
383.600 1.576244
383.700 1.691814
383.800 1.835474
383.900 1.983146
384.000 2.070626
384.100 2.149278
384.200 2.196629
384.300 2.247994
384.400 2.286517
384.500 2.314607
384.600 2.317817
384.700 2.321027
384.800 2.318620
384.900 2.322632
385.000 2.324238
385.100 2.341091
385.200 2.353130
385.300 2.345907
385.400 2.322632
385.500 2.301766
385.600 2.287319
385.700 2.290530
385.800 2.311396
385.900 2.337079
386.000 2.348315
386.100 2.345907
386.200 2.315409
386.300 2.267255
386.400 2.263242
386.500 2.266453
386.600 2.268058
386.700 2.279294
386.800 2.287319
386.900 2.286517
387.000 2.276083
387.100 2.256019
387.200 2.239968
387.300 2.242376
387.400 2.256019
387.500 2.269663
387.600 2.261637
387.700 2.244783
387.800 2.235152
387.900 2.231942
388.000 2.230337
388.100 2.203050
388.200 2.160514
388.300 2.119583
388.400 2.072231
388.500 1.987159
388.600 1.865971
388.700 1.691814
388.800 1.538523
388.900 1.475120
389.000 1.548154
389.100 1.708668
389.200 1.886035
389.300 2.000000
389.400 2.083467
389.500 2.133226
389.600 2.171750
389.700 2.204655
389.800 2.222311
389.900 2.231140
390.000 2.237560
390.100 2.255217
390.200 2.274478
390.300 2.288122
390.400 2.292135
390.500 2.284912
390.600 2.274478
390.700 2.281701
390.800 2.306581
390.900 2.319422
391.000 2.313804
391.100 2.316212
391.200 2.313804
391.300 2.297753
391.400 2.288925
391.500 2.296148
391.600 2.303371
391.700 2.303371
391.800 2.291332
391.900 2.267255
392.000 2.260032
392.100 2.259230
392.200 2.247994
392.300 2.224719
392.400 2.217496
392.500 2.227127
392.600 2.223917
392.700 2.232745
392.800 2.236758
392.900 2.238363
393.000 2.230337
393.100 2.180578
393.200 2.033708
393.300 1.833066
393.400 1.845104
393.500 2.015249
393.600 2.152488
393.700 2.213483
393.800 2.239968
393.900 2.253612
394.000 2.269663
394.100 2.279294
394.200 2.277689
394.300 2.256822
394.400 2.240770
394.500 2.219101
394.600 2.207865
394.700 2.213483
394.800 2.219101
394.900 2.218299
395.000 2.212681
395.100 2.203050
395.200 2.195024
395.300 2.191011
395.400 2.187801
395.500 2.174960
395.600 2.159711
395.700 2.148475
395.800 2.146067
395.900 2.145265
396.000 2.133226
396.100 2.113162
396.200 2.080257
396.300 2.034510
396.400 1.978331
396.500 1.910112
396.600 1.807384
396.700 1.595506
396.800 1.365169
396.900 1.255217
397.000 1.269663
397.100 1.388443
397.200 1.563403
397.300 1.713483
397.400 1.836276
397.500 1.921348
397.600 1.979936
397.700 2.018459
397.800 2.034510
397.900 2.066613
398.000 2.085875
398.100 2.101124
398.200 2.106742
398.300 2.106742
398.400 2.114767
398.500 2.126003
398.600 2.110754
398.700 2.078652
398.800 2.128411
398.900 2.143660
399.000 2.156501
399.100 2.163724
399.200 2.162921
399.300 2.158106
399.400 2.145265
399.500 2.146870
399.600 2.141252
399.700 2.140449
399.800 2.145265
399.900 2.153291
400.000 2.135634
400.100 2.120385
400.200 2.117978
400.300 2.115570
400.400 2.117175
400.500 2.121188
400.600 2.121990
400.700 2.117978
400.800 2.111557
400.900 2.097111
401.000 2.094703
401.100 2.110754
401.200 2.121990
401.300 2.130819
401.400 2.134831
401.500 2.136437
401.600 2.139647
401.700 2.148475
401.800 2.157303
401.900 2.163724
402.000 2.158909
402.100 2.146870
402.200 2.135634
402.300 2.099518
402.400 2.036918
402.500 1.976726
402.600 1.956661
402.700 1.992777
402.800 2.057785
402.900 2.099518
403.000 2.134831
403.100 2.139647
403.200 2.139647
403.300 2.135634
403.400 2.134831
403.500 2.139647
403.600 2.143660
403.700 2.142055
403.800 2.142857
403.900 2.138042
404.000 2.141252
404.100 2.150080
404.200 2.143660
404.300 2.133226
404.400 2.124398
404.500 2.113965
404.600 2.111557
404.700 2.121990
404.800 2.132424
404.900 2.138042
405.000 2.135634
405.100 2.133226
405.200 2.136437
405.300 2.127608
405.400 2.126003
405.500 2.134029
405.600 2.133226
405.700 2.134029
405.800 2.138042
405.900 2.138844
406.000 2.136437
406.100 2.121188
406.200 2.107544
406.300 2.102729
406.400 2.068218
406.500 1.988764
406.600 2.005618
406.700 2.034510
406.800 2.035313
406.900 2.026485
407.000 2.013644
407.100 2.005618
407.200 2.008828
407.300 2.004815
407.400 2.009631
407.500 2.006421
407.600 1.993579
407.700 1.983949
407.800 1.986356
407.900 2.004013
408.000 2.016854
408.100 2.021669
408.200 2.019262
408.300 2.013644
408.400 1.996790
408.500 1.989567
408.600 1.983146
408.700 1.991172
408.800 1.993579
408.900 1.987961
409.000 1.970305
409.100 1.957464
409.200 1.948636
409.300 1.926164
409.400 1.898074
409.500 1.852327
409.600 1.803371
409.700 1.750401
409.800 1.656501
409.900 1.540128
410.000 1.397271
410.100 1.270465
410.200 1.247994
410.300 1.339486
410.400 1.498395
410.500 1.648475
410.600 1.739165
410.700 1.792937
410.800 1.836276
410.900 1.857945
411.000 1.879615
411.100 1.898876
411.200 1.917335
411.300 1.931782
411.400 1.949438
411.500 1.966292
411.600 1.977528
411.700 1.970305
411.800 1.951043
411.900 1.937400
412.000 1.927769
412.100 1.931782
412.200 1.939005
412.300 1.952648
412.400 1.963884
412.500 1.971910
412.600 1.963082
412.700 1.942215
412.800 1.922151
412.900 1.914928
413.000 1.918941
413.100 1.929374
413.200 1.939005
413.300 1.948636
413.400 1.965490
413.500 1.975120
413.600 1.976726
413.700 1.975923
413.800 1.979936
413.900 1.979936
414.000 1.979936
414.100 1.973515
414.200 1.949438
