# Wavelength (nm)   F_lamA (normalized erg/cm2/s/A)9.100 0.000525
9.400 0.000599
9.600 0.000651
9.800 0.000707
10.000 0.000766
10.200 0.000826
10.400 0.000892
10.600 0.000960
10.800 0.001033
11.000 0.001109
11.400 0.001275
11.800 0.001465
12.100 0.001622
12.500 0.001857
12.700 0.001987
12.800 0.002055
13.100 0.002273
13.200 0.002351
13.400 0.002515
13.700 0.002782
14.000 0.003077
14.300 0.003403
14.700 0.003892
15.100 0.004450
15.500 0.005084
15.900 0.005804
16.200 0.006405
16.600 0.007295
17.000 0.008293
17.300 0.009122
17.700 0.010340
18.000 0.011339
18.200 0.012047
18.600 0.013576
19.100 0.015708
19.400 0.017110
19.800 0.019122
20.200 0.021317
20.500 0.023081
21.000 0.026246
21.600 0.030439
22.000 0.033470
22.300 0.035878
22.700 0.039256
23.000 0.794618
23.400 0.881728
24.000 1.115439
24.600 1.486544
25.200 1.854816
25.700 1.485127
26.000 2.051700
26.400 2.575071
26.900 2.652266
27.400 2.703966
27.900 2.536119
28.400 2.781870
29.000 2.778329
29.600 2.514873
30.100 1.657224
30.800 2.035411
31.800 2.601983
32.800 2.607649
33.800 2.535411
34.800 2.470963
35.700 2.546034
36.600 2.652975
37.500 2.601983
38.500 2.410765
39.500 2.531870
40.500 2.570822
41.400 2.539660
42.200 2.462465
43.000 2.404391
44.100 2.444759
45.100 2.412890
46.000 2.329320
47.000 2.289660
48.000 2.286119
49.000 2.194759
50.000 2.216714
50.600 2.406516
51.200 3.019122
52.000 2.939093
53.000 2.860482
54.000 2.665722
55.000 2.628187
56.000 2.784703
57.000 2.760623
58.000 2.663598
59.000 2.661473
60.000 2.560907
61.000 2.489377
62.000 2.566572
63.000 2.503541
64.000 2.492210
65.000 2.432011
65.800 2.362606
66.500 2.384561
67.500 2.371813
68.500 2.264873
69.500 2.293909
70.500 2.180595
71.600 2.232295
72.600 2.203966
73.500 2.179887
74.500 2.130312
75.500 2.092068
76.500 2.031161
77.500 2.025496
78.500 1.992210
79.500 1.968130
80.500 1.945467
81.500 1.924221
82.500 1.902975
83.500 1.798867
84.500 1.843484
85.500 1.811615
86.500 1.799575
87.500 1.776204
88.500 1.750708
89.500 1.725212
90.500 1.687677
91.500 1.742918
92.500 3.308074
93.500 4.688385
94.500 6.755666
95.500 7.733711
96.500 8.966006
97.500 5.263456
98.500 9.383853
99.500 9.171388
100.500 9.567989
101.500 8.583569
102.500 5.049575
103.500 7.797450
104.500 9.369688
105.500 9.426346
106.500 8.888102
107.500 9.121813
108.500 8.477337
109.500 8.916431
110.500 8.597734
111.500 8.463173
112.500 8.024079
113.500 8.194051
114.500 7.839943
115.500 7.762040
116.500 7.641643
117.500 6.720963
118.500 7.077195
119.500 6.428470
120.500 5.606232
121.500 3.449717
122.500 5.392351
123.500 6.145892
124.500 6.312323
125.500 6.339235
126.500 6.167847
127.500 6.306657
128.500 6.281161
129.500 6.006374
130.500 5.900850
131.500 6.022663
132.500 5.871813
133.500 5.700425
134.500 5.754958
135.500 5.648017
136.500 5.496459
137.500 5.423513
138.500 5.376771
139.500 5.072238
140.500 4.977337
141.500 5.109065
142.500 5.006374
143.500 4.941926
144.200 4.928470
144.700 4.888810
145.500 4.817989
146.500 4.712465
147.500 4.645184
148.500 4.580028
149.500 4.502833
150.500 4.423513
151.200 4.340652
151.700 4.333569
152.500 4.253541
153.500 4.089943
154.500 4.021246
155.500 3.927054
156.500 3.905807
157.500 3.919263
158.500 3.899433
159.500 3.876062
160.500 3.734419
161.500 3.687677
162.500 3.610482
163.500 3.579320
164.500 3.498584
165.500 3.455382
166.500 3.504958
167.200 3.374646
167.700 3.443343
168.500 3.428470
169.500 3.349858
170.500 3.283286
171.500 3.225921
172.500 3.179178
173.500 3.194051
174.500 3.126771
175.500 3.119688
176.500 3.002833
177.500 3.025496
178.500 2.987960
179.500 2.976629
180.500 2.949008
181.500 2.892351
182.500 2.853399
183.500 2.816572
184.500 2.725212
185.500 2.687677
186.500 2.674221
187.500 2.673513
188.500 2.601983
189.500 2.551700
190.500 2.559490
191.500 2.505666
192.500 2.469547
193.500 2.451133
194.500 2.467422
195.500 2.398017
196.700 2.409348
197.600 2.392351
198.400 2.347734
199.500 2.295326
200.500 2.283994
201.500 2.259207
202.500 2.239377
203.500 2.216714
204.500 2.201841
205.500 2.038244
206.500 2.067989
207.400 2.153683
207.800 2.131020
208.500 2.124646
209.500 2.082153
210.500 2.070822
211.500 2.060198
212.500 2.043909
213.500 1.995751
214.500 1.993626
215.500 1.979462
216.500 1.932720
217.500 1.918555
218.500 1.903683
219.500 1.915722
220.500 1.876771
221.500 1.830737
222.500 1.815864
223.500 1.837819
224.500 1.799575
225.500 1.756374
226.500 1.741501
227.500 1.746459
228.500 1.741501
229.500 1.694051
230.500 1.692635
231.500 1.677762
232.500 1.561615
233.500 1.628187
234.500 1.570822
235.500 1.609773
236.500 1.551700
237.500 1.565156
238.500 1.491501
239.500 1.520538
240.500 1.497875
241.500 1.490793
242.500 1.514164
243.500 1.484419
244.500 1.490793
245.500 1.477337
246.500 1.456799
247.500 1.430595
248.500 1.420680
249.500 1.382436
250.500 1.429887
251.300 1.364023
251.800 1.364023
252.500 1.339943
253.500 1.334278
254.500 1.327904
255.500 1.352691
256.500 1.334278
257.500 1.348442
258.500 1.337819
259.500 1.320822
260.500 1.294618
261.500 1.274788
262.500 1.288952
263.500 1.296742
264.500 1.339235
265.500 1.339235
266.500 1.298159
267.500 1.306657
268.500 1.308782
269.500 1.269122
270.500 1.271955
271.500 1.236544
272.500 1.225212
273.500 1.235127
274.500 1.168555
275.500 1.179887
276.500 1.199717
277.500 1.216006
278.500 1.184136
279.500 1.046742
280.500 1.078612
281.500 1.194759
282.500 1.196176
283.500 1.179178
284.500 1.159348
285.500 1.115439
286.500 1.160765
287.500 1.155807
288.500 1.152975
289.500 1.148017
291.000 1.167847
293.000 1.142351
295.000 1.122521
297.000 1.118272
299.000 1.109773
301.000 1.103399
303.000 1.092776
305.000 1.086402
307.000 1.070113
309.000 1.059490
311.000 1.048867
313.000 1.034703
315.000 1.024079
317.000 1.021955
319.000 0.992210
321.000 0.998584
323.000 0.977337
325.000 0.991501
327.000 1.000000
329.000 0.991501
331.000 0.984419
332.200 0.925637
332.300 0.912181
332.400 0.907224
332.500 0.913598
332.600 0.907224
332.700 0.894476
332.800 0.899433
332.900 0.909348
333.000 0.927054
333.100 0.936261
333.200 0.928470
333.300 0.922805
333.400 0.909348
333.500 0.903683
333.600 0.893059
333.700 0.884561
333.800 0.890935
333.900 0.895892
334.000 0.895184
334.100 0.899433
334.200 0.895892
334.300 0.911473
334.400 0.929887
334.500 0.932720
334.600 0.932011
334.700 0.915014
334.800 0.888810
334.900 0.864731
335.000 0.858357
335.100 0.867564
335.200 0.874646
335.300 0.881728
335.400 0.890935
335.500 0.900142
335.600 0.897309
335.700 0.885269
335.800 0.857649
335.900 0.832153
336.000 0.814448
336.100 0.821530
336.200 0.842776
336.300 0.866856
336.400 0.881728
336.500 0.872521
336.600 0.861190
336.700 0.855524
336.800 0.849858
336.900 0.848442
337.000 0.836402
337.100 0.823654
337.200 0.813739
337.300 0.824363
337.400 0.844193
337.500 0.873229
337.600 0.888102
337.700 0.881020
337.800 0.865439
337.900 0.855524
338.000 0.860482
338.100 0.871105
338.200 0.879603
338.300 0.885269
338.400 0.886686
338.500 0.893768
338.600 0.888810
338.700 0.873229
338.800 0.863314
338.900 0.873229
339.000 0.888810
339.100 0.902266
339.200 0.897309
339.300 0.885269
339.400 0.890227
339.500 0.900142
339.600 0.913598
339.700 0.919263
339.800 0.922805
339.900 0.912890
340.000 0.899433
340.100 0.893059
340.200 0.873229
340.300 0.866856
340.400 0.861898
340.500 0.869688
340.600 0.868980
340.700 0.865439
340.800 0.862606
340.900 0.863314
341.000 0.875354
341.100 0.868980
341.200 0.866147
341.300 0.864731
341.400 0.868980
341.500 0.880312
341.600 0.888102
341.700 0.891643
341.800 0.899433
341.900 0.905807
342.000 0.910765
342.100 0.910765
342.200 0.896601
342.300 0.880312
342.400 0.874646
342.500 0.878895
342.600 0.885977
342.700 0.895892
342.800 0.910057
342.900 0.922805
343.000 0.924221
343.100 0.908640
343.200 0.892351
343.300 0.885977
343.400 0.898017
343.500 0.915014
343.600 0.919263
343.700 0.910057
343.800 0.898017
343.900 0.885269
344.000 0.871813
344.100 0.854816
344.200 0.845609
344.300 0.845609
344.400 0.851983
344.500 0.861898
344.600 0.881020
344.700 0.902266
344.800 0.919972
344.900 0.930595
345.000 0.907932
345.100 0.876771
345.200 0.857649
345.300 0.853399
345.400 0.863314
345.500 0.870397
345.600 0.871105
345.700 0.871105
345.800 0.866147
345.900 0.861898
346.000 0.851983
346.100 0.846317
346.200 0.855524
346.300 0.869688
346.400 0.871813
346.500 0.864731
346.600 0.865439
346.700 0.875354
346.800 0.886686
346.900 0.896601
347.000 0.903683
347.100 0.899433
347.200 0.890935
347.300 0.871105
347.400 0.856232
347.500 0.849150
347.600 0.849858
347.700 0.861898
347.800 0.869688
347.900 0.874646
348.000 0.885977
348.100 0.888810
348.200 0.882436
348.300 0.874646
348.400 0.872521
348.500 0.884561
348.600 0.899433
348.700 0.902266
348.800 0.898725
348.900 0.885269
349.000 0.872521
349.100 0.874646
349.200 0.887394
349.300 0.890227
349.400 0.884561
349.500 0.873938
349.600 0.863314
349.700 0.867564
349.800 0.870397
349.900 0.873229
350.000 0.865439
350.100 0.858357
350.200 0.865439
350.300 0.870397
350.400 0.869688
350.500 0.860482
350.600 0.851983
350.700 0.849150
350.800 0.847734
350.900 0.854108
351.000 0.859065
351.100 0.860482
351.200 0.854816
351.300 0.844901
351.400 0.843484
351.500 0.851983
351.600 0.871813
351.700 0.885977
351.800 0.890227
351.900 0.878187
352.000 0.866856
352.100 0.859773
352.200 0.854108
352.300 0.850567
352.400 0.844193
352.500 0.837110
352.600 0.842776
352.700 0.851275
352.800 0.863314
352.900 0.876771
353.000 0.886686
353.100 0.894476
353.200 0.892351
353.300 0.873229
353.400 0.857649
353.500 0.852691
353.600 0.866856
353.700 0.883144
353.800 0.890935
353.900 0.896601
354.000 0.896601
354.100 0.893768
354.200 0.893059
354.300 0.900850
354.400 0.907224
354.500 0.904391
354.600 0.900850
354.700 0.897309
354.800 0.895892
354.900 0.895892
355.000 0.900142
355.100 0.907224
355.200 0.906516
355.300 0.893768
355.400 0.882436
355.500 0.882436
355.600 0.889518
355.700 0.902975
355.800 0.909348
355.900 0.907932
356.000 0.904391
356.100 0.904391
356.200 0.902975
356.300 0.893768
356.400 0.878895
356.500 0.864023
356.600 0.856941
356.700 0.856941
356.800 0.859773
356.900 0.858357
357.000 0.847025
357.100 0.830028
357.200 0.822238
357.300 0.822238
357.400 0.826487
357.500 0.834278
357.600 0.843484
357.700 0.848442
357.800 0.851275
357.900 0.847025
358.000 0.839943
358.100 0.830737
358.200 0.822946
358.300 0.824363
358.400 0.822238
358.500 0.810907
358.600 0.794618
358.700 0.786827
358.800 0.793201
358.900 0.813739
359.000 0.832861
359.100 0.842068
359.200 0.841360
359.300 0.839943
359.400 0.842776
359.500 0.851983
359.600 0.861190
359.700 0.866147
359.800 0.867564
359.900 0.868980
360.000 0.869688
360.100 0.859065
360.200 0.851275
360.300 0.844901
360.400 0.847734
360.500 0.852691
360.600 0.851983
360.700 0.847734
360.800 0.843484
360.900 0.844193
361.000 0.844901
361.100 0.845609
361.200 0.849858
361.300 0.852691
361.400 0.857649
361.500 0.871105
361.600 0.874646
361.700 0.870397
361.800 0.859773
361.900 0.849858
362.000 0.852691
362.100 0.861898
362.200 0.872521
362.300 0.878895
362.400 0.881728
362.500 0.893059
362.600 0.908640
362.700 0.923513
362.800 0.919263
362.900 0.900142
363.000 0.872521
363.100 0.856232
363.200 0.857649
363.300 0.873229
363.400 0.885977
363.500 0.883853
363.600 0.873938
363.700 0.876062
363.800 0.884561
363.900 0.890935
364.000 0.893768
364.100 0.890227
364.200 0.881020
364.300 0.871105
364.400 0.864731
364.500 0.863314
364.600 0.859773
364.700 0.858357
364.800 0.859065
364.900 0.857649
365.000 0.859065
365.100 0.861190
365.200 0.870397
365.300 0.879603
365.400 0.888102
365.500 0.897309
365.600 0.904391
365.700 0.905807
365.800 0.903683
365.900 0.901558
366.000 0.895892
366.100 0.888810
366.200 0.881728
366.300 0.879603
366.400 0.882436
366.500 0.886686
366.600 0.888102
366.700 0.885977
366.800 0.879603
366.900 0.874646
367.000 0.873938
367.100 0.876771
367.200 0.885269
367.300 0.888810
367.400 0.885977
367.500 0.878895
367.600 0.867564
367.700 0.856232
367.800 0.848442
367.900 0.849858
368.000 0.855524
368.100 0.861190
368.200 0.861898
368.300 0.859773
368.400 0.859065
368.500 0.853399
368.600 0.846317
368.700 0.847025
368.800 0.864023
368.900 0.886686
369.000 0.891643
369.100 0.882436
369.200 0.878895
369.300 0.885977
369.400 0.898725
369.500 0.902266
369.600 0.885977
369.700 0.869688
369.800 0.876771
369.900 0.908640
370.000 0.946884
370.100 0.949717
370.200 0.911473
370.300 0.849150
370.400 0.810907
370.500 0.805949
370.600 0.837110
370.700 0.876771
370.800 0.907224
370.900 0.900142
371.000 0.861898
371.100 0.823654
371.200 0.803824
371.300 0.827195
371.400 0.882436
371.500 0.950425
371.600 0.992918
371.700 1.012040
371.800 0.995751
371.900 0.938385
372.000 0.844193
372.100 0.776912
372.200 0.752833
372.300 0.786827
372.400 0.864731
372.500 0.943343
372.600 0.989377
372.700 1.024079
372.800 1.038952
372.900 1.042493
373.000 1.029037
373.100 0.983711
373.200 0.890935
373.300 0.804533
373.400 0.730878
373.500 0.713173
373.600 0.755666
373.700 0.842776
373.800 0.925637
373.900 1.018414
374.000 1.072238
374.100 1.104108
374.200 1.104108
374.300 1.088527
374.400 1.062323
374.500 1.026912
374.600 0.978754
374.700 0.913598
374.800 0.839235
374.900 0.759207
375.000 0.724504
375.100 0.743626
375.200 0.811615
375.300 0.909348
375.400 0.997875
375.500 1.053116
375.600 1.092068
375.700 1.099150
375.800 1.095609
375.900 1.089943
376.000 1.089235
376.100 1.101275
376.200 1.114731
376.300 1.111898
376.400 1.098442
376.500 1.066572
376.600 1.023371
376.700 0.970255
376.800 0.886686
376.900 0.806657
377.000 0.740085
377.100 0.727337
377.200 0.776912
377.300 0.866147
377.400 0.940510
377.500 1.006374
377.600 1.053116
377.700 1.098442
377.800 1.149433
377.900 1.187677
378.000 1.226629
378.100 1.245751
378.200 1.255666
378.300 1.254958
378.400 1.252833
378.500 1.246459
378.600 1.235836
378.700 1.215297
378.800 1.196884
378.900 1.181303
379.000 1.162181
379.100 1.140227
379.200 1.101275
379.300 1.053824
379.400 0.990085
379.500 0.902975
379.600 0.818697
379.700 0.733711
379.800 0.696105
379.900 0.722380
380.000 0.814448
380.100 0.912181
380.200 1.008499
380.300 1.064448
380.400 1.115439
380.500 1.146601
380.600 1.169263
380.700 1.197592
380.800 1.223796
380.900 1.256374
381.000 1.281870
381.100 1.294618
381.200 1.282578
381.300 1.264873
381.400 1.247875
381.500 1.247875
381.600 1.257082
381.700 1.269122
381.800 1.268414
381.900 1.242918
382.000 1.221671
382.100 1.211756
382.200 1.221671
382.300 1.223796
382.400 1.200425
382.500 1.169972
382.600 1.138810
382.700 1.114731
382.800 1.084278
382.900 1.048867
383.000 1.011331
383.100 0.954674
383.200 0.892351
383.300 0.801700
383.400 0.711048
383.500 0.665510
383.600 0.664306
383.700 0.712465
383.800 0.790368
383.900 0.868272
384.000 0.936969
384.100 1.010623
384.200 1.068697
384.300 1.131728
384.400 1.173513
384.500 1.206091
384.600 1.234419
384.700 1.257082
384.800 1.274079
384.900 1.279037
385.000 1.282578
385.100 1.298159
385.200 1.319405
385.300 1.336402
385.400 1.337110
385.500 1.328612
385.600 1.316572
385.700 1.310198
385.800 1.308782
385.900 1.313739
386.000 1.322946
386.100 1.334986
386.200 1.339943
386.300 1.334278
386.400 1.330737
386.500 1.327195
386.600 1.327904
386.700 1.333569
386.800 1.337819
386.900 1.335694
387.000 1.320822
387.100 1.301700
387.200 1.275496
387.300 1.262748
387.400 1.259915
387.500 1.263456
387.600 1.257082
387.700 1.230170
387.800 1.203966
387.900 1.180595
388.000 1.172096
388.100 1.157932
388.200 1.123938
388.300 1.086402
388.400 1.034703
388.500 0.971671
388.600 0.891643
388.700 0.788244
388.800 0.713173
388.900 0.679533
389.000 0.711756
389.100 0.793201
389.200 0.890227
389.300 0.958215
389.400 1.016289
389.500 1.057365
389.600 1.103399
389.700 1.142351
389.800 1.170680
389.900 1.190510
390.000 1.206091
390.100 1.230170
390.200 1.250000
390.300 1.266289
390.400 1.269830
390.500 1.272663
390.600 1.281870
390.700 1.303116
390.800 1.333569
390.900 1.361898
391.000 1.376062
391.100 1.380312
391.200 1.378187
391.300 1.368272
391.400 1.355524
391.500 1.354816
391.600 1.364023
391.700 1.366856
391.800 1.364023
391.900 1.354816
392.000 1.352691
392.100 1.352691
392.200 1.351983
392.300 1.354108
392.400 1.353399
392.500 1.352691
392.600 1.336402
392.700 1.315156
392.800 1.283286
392.900 1.245042
393.000 1.199008
393.100 1.116856
393.200 1.009207
393.300 0.905099
393.400 0.881728
393.500 0.953258
393.600 1.070113
393.700 1.169263
393.800 1.245751
393.900 1.289660
394.000 1.316572
394.100 1.334278
394.200 1.339235
394.300 1.334278
394.400 1.330737
394.500 1.327195
394.600 1.330028
394.700 1.332861
394.800 1.327195
394.900 1.317989
395.000 1.310907
395.100 1.303824
395.200 1.296034
395.300 1.297450
395.400 1.294618
395.500 1.282578
395.600 1.265581
395.700 1.244334
395.800 1.233711
395.900 1.220255
396.000 1.190510
396.100 1.153683
396.200 1.104816
396.300 1.060198
396.400 1.007082
396.500 0.927054
396.600 0.827195
396.700 0.687535
396.800 0.575000
396.900 0.507861
397.000 0.522025
397.100 0.597025
397.200 0.712465
397.300 0.813031
397.400 0.910765
397.500 0.980878
397.600 1.043201
397.700 1.094901
397.800 1.133144
397.900 1.173513
398.000 1.196176
398.100 1.215297
398.200 1.232295
398.300 1.247875
398.400 1.268414
398.500 1.287535
398.600 1.302408
398.700 1.311615
398.800 1.330028
398.900 1.337110
399.000 1.342776
399.100 1.351275
399.200 1.358357
399.300 1.368272
399.400 1.372521
399.500 1.372521
399.600 1.361898
399.700 1.354108
399.800 1.354108
399.900 1.365439
400.000 1.372521
400.100 1.376771
400.200 1.378187
400.300 1.373938
400.400 1.366856
400.500 1.358357
400.600 1.359065
400.700 1.366856
400.800 1.381728
400.900 1.389518
401.000 1.392351
401.100 1.393768
401.200 1.394476
401.300 1.394476
401.400 1.394476
401.500 1.400850
401.600 1.407932
401.700 1.415014
401.800 1.421388
401.900 1.424929
402.000 1.427054
402.100 1.423513
402.200 1.415722
402.300 1.403683
402.400 1.388102
402.500 1.378895
402.600 1.379603
402.700 1.394476
402.800 1.405807
402.900 1.408640
403.000 1.402266
403.100 1.394476
403.200 1.391643
403.300 1.393768
403.400 1.400850
403.500 1.414306
403.600 1.427762
403.700 1.441926
403.800 1.444759
403.900 1.439802
404.000 1.433428
404.100 1.427762
404.200 1.426346
404.300 1.418555
404.400 1.398017
404.500 1.376771
404.600 1.366856
404.700 1.383144
404.800 1.407224
404.900 1.424221
405.000 1.426346
405.100 1.426346
405.200 1.422096
405.300 1.413598
405.400 1.405807
405.500 1.404391
405.600 1.406516
405.700 1.408640
405.800 1.410057
405.900 1.419263
406.000 1.423513
406.100 1.416431
406.200 1.394476
406.300 1.373938
406.400 1.358357
406.500 1.344901
406.600 1.349150
406.700 1.354816
406.800 1.354816
406.900 1.353399
407.000 1.344901
407.100 1.326487
407.200 1.315864
407.300 1.317989
407.400 1.325071
407.500 1.324363
407.600 1.305241
407.700 1.287535
407.800 1.277620
407.900 1.287535
408.000 1.305241
408.100 1.315864
408.200 1.315864
408.300 1.305241
408.400 1.293201
408.500 1.280453
408.600 1.273371
408.700 1.271955
408.800 1.269122
408.900 1.263456
409.000 1.247167
409.100 1.231586
409.200 1.216006
409.300 1.187677
409.400 1.160765
409.500 1.118980
409.600 1.076487
409.700 1.029037
409.800 0.966006
409.900 0.894476
410.000 0.796034
410.100 0.721671
410.200 0.696671
410.300 0.748584
410.400 0.837110
410.500 0.934136
410.600 0.995751
410.700 1.047450
410.800 1.084278
410.900 1.114023
411.000 1.144476
411.100 1.167139
411.200 1.194759
411.300 1.216006
411.400 1.237252
411.500 1.257082
411.600 1.269830
411.700 1.274079
411.800 1.271246
411.900 1.269122
412.000 1.271955
412.100 1.280453
412.200 1.291076
412.300 1.299575
412.400 1.309490
412.500 1.317989
412.600 1.318697
412.700 1.313739
412.800 1.308782
412.900 1.308074
413.000 1.305949
413.100 1.303824
413.200 1.300992
413.300 1.306657
413.400 1.322946
413.500 1.336402
413.600 1.347025
413.700 1.356232
413.800 1.364731
413.900 1.373229
414.000 1.371813
414.100 1.360482
414.200 1.342776
414.300 1.325779
414.400 1.322238
414.500 1.330737
414.600 1.347734
414.700 1.354816
414.800 1.356232
414.900 1.356941
415.000 1.359065
415.100 1.363314
415.200 1.361190
415.300 1.355524
415.400 1.350567
415.500 1.347734
