# Wavelength (nm)   F_lamA (normalized erg/cm2/s/A)9.100 0.000018
9.400 0.000031
9.600 0.000044
9.800 0.000062
10.000 0.000085
10.200 0.000116
10.400 0.000157
10.600 0.000208
10.800 0.000273
11.000 0.000356
11.400 0.000583
11.800 0.000923
12.100 0.001274
12.500 0.001911
12.700 0.002316
12.800 0.002543
13.100 0.003339
13.200 0.003645
13.400 0.004326
13.700 0.005539
14.000 0.007015
14.300 0.008791
14.700 0.011697
15.100 0.015330
15.500 0.019789
15.900 0.025202
16.200 0.029963
16.600 0.037358
17.000 0.046064
17.300 0.053541
17.700 0.064881
18.000 0.074477
18.200 0.081431
18.600 0.096697
19.100 0.118624
19.400 0.133394
19.800 0.154862
20.200 0.178716
20.500 0.198165
21.000 0.233578
21.600 0.281284
22.000 0.316239
22.300 0.344220
22.700 0.383761
23.000 9.477064
23.400 10.623853
24.000 13.669725
24.600 18.486239
25.200 23.266055
25.700 18.504587
26.000 25.844037
26.400 32.623853
26.900 33.633028
27.400 34.330275
27.900 32.165138
28.400 35.357798
29.000 35.339450
29.600 31.954128
30.100 20.871560
30.800 25.779817
31.800 33.146789
32.800 33.247706
33.800 32.330275
34.800 31.522936
35.700 32.513761
36.600 33.917431
37.500 33.266055
38.500 30.816514
39.500 32.403670
40.500 32.926606
41.400 32.532110
42.200 31.550459
43.000 30.816514
44.100 31.348624
45.100 30.954128
46.000 29.880734
47.000 29.376147
48.000 29.339450
49.000 28.174312
50.000 28.467890
50.600 30.926606
51.200 38.853211
52.000 37.825688
53.000 36.816514
54.000 34.311927
55.000 33.834862
56.000 35.862385
57.000 35.550459
58.000 34.302752
59.000 34.284404
60.000 32.990826
61.000 32.064220
62.000 33.064220
63.000 32.256881
64.000 32.110092
65.000 31.339450
65.800 30.440367
66.500 30.724771
67.500 30.568807
68.500 29.183486
69.500 29.559633
70.500 28.100917
71.600 28.770642
72.600 28.403670
73.500 28.091743
74.500 27.449541
75.500 26.954128
76.500 26.165138
77.500 26.091743
78.500 25.660550
79.500 25.348624
80.500 25.064220
81.500 24.779817
82.500 24.504587
83.500 23.155963
84.500 23.733945
85.500 23.311927
86.500 23.165138
87.500 22.853211
88.500 22.513761
89.500 22.183486
90.500 21.697248
91.500 22.339450
92.500 41.825688
93.500 58.045872
94.500 79.458716
95.500 86.247706
96.500 97.522936
97.500 62.357798
98.500 94.587156
99.500 88.633028
100.500 92.293578
101.500 88.614679
102.500 60.522936
103.500 82.633028
104.500 88.889908
105.500 86.834862
106.500 81.715596
107.500 81.972477
108.500 76.100917
109.500 79.651376
110.500 76.770642
111.500 75.284404
112.500 71.348624
113.500 72.532110
114.500 69.963303
115.500 68.917431
116.500 67.669725
117.500 59.596330
118.500 63.963303
119.500 61.486239
120.500 57.513761
121.500 40.715596
122.500 55.880734
123.500 57.587156
124.500 56.669725
125.500 55.972477
126.500 54.853211
127.500 54.284404
128.500 53.293578
129.500 50.972477
130.500 50.238532
131.500 50.201835
132.500 48.761468
133.500 47.366972
134.500 47.128440
135.500 46.266055
136.500 45.018349
137.500 44.091743
138.500 43.412844
139.500 40.155963
140.500 38.926606
141.500 40.926606
142.500 39.770642
143.500 39.412844
144.200 38.963303
144.700 38.550459
145.500 37.853211
146.500 37.100917
147.500 36.440367
148.500 35.871560
149.500 35.119266
150.500 34.348624
151.200 33.733945
151.700 33.504587
152.500 32.972477
153.500 31.550459
154.500 30.238532
155.500 29.743119
156.500 30.045872
157.500 29.908257
158.500 29.541284
159.500 29.091743
160.500 28.064220
161.500 27.541284
162.500 27.146789
163.500 26.697248
164.500 25.678899
165.500 26.110092
166.500 25.779817
167.200 25.137615
167.700 25.504587
168.500 25.110092
169.500 24.614679
170.500 24.082569
171.500 23.440367
172.500 23.100917
173.500 23.036697
174.500 22.577982
175.500 22.256881
176.500 21.761468
177.500 21.513761
178.500 21.238532
179.500 20.926606
180.500 20.660550
181.500 20.201835
182.500 19.935780
183.500 19.633028
184.500 19.055046
185.500 18.678899
186.500 18.504587
187.500 18.366972
188.500 17.798165
189.500 17.376147
190.500 17.412844
191.500 16.972477
192.500 16.596330
193.500 16.587156
194.500 16.467890
195.500 15.926606
196.700 15.908257
197.600 15.825688
198.400 15.477064
199.500 15.110092
200.500 15.055046
201.500 14.889908
202.500 14.743119
203.500 14.412844
204.500 14.211009
205.500 12.486239
206.500 12.917431
207.400 13.779817
207.800 13.596330
208.500 13.513761
209.500 13.256881
210.500 13.165138
211.500 13.055046
212.500 12.908257
213.500 12.697248
214.500 12.486239
215.500 12.412844
216.500 12.146789
217.500 12.055046
218.500 11.825688
219.500 11.761468
220.500 11.577982
221.500 11.339450
222.500 11.238532
223.500 11.110092
224.500 10.963303
225.500 10.715596
226.500 10.660550
227.500 10.532110
228.500 10.394495
229.500 10.146789
230.500 10.027523
231.500 9.963303
232.500 9.504587
233.500 9.688073
234.500 9.541284
235.500 9.458716
236.500 9.302752
237.500 9.201835
238.500 8.960550
239.500 8.953211
240.500 8.837615
241.500 8.725688
242.500 8.640367
243.500 8.511009
244.500 8.417431
245.500 8.315596
246.500 8.201835
247.500 8.100000
248.500 8.008257
249.500 7.693578
250.500 7.807339
251.300 7.510092
251.800 7.666972
252.500 7.602752
253.500 7.503670
254.500 7.404587
255.500 7.344954
256.500 7.252294
257.500 7.179817
258.500 7.095413
259.500 7.005505
260.500 6.919266
261.500 6.833945
262.500 6.762385
263.500 6.682569
264.500 6.640367
265.500 6.561468
266.500 6.469725
267.500 6.399083
268.500 6.346789
269.500 6.241284
270.500 6.195413
271.500 6.117431
272.500 6.021101
273.500 5.921101
274.500 5.886239
275.500 5.825688
276.500 5.747706
277.500 5.722018
278.500 5.653211
279.500 5.533945
280.500 5.502752
281.500 5.475229
282.500 5.388991
283.500 5.329358
284.500 5.288991
285.500 5.230275
286.500 5.180734
287.500 5.122936
288.500 5.069725
289.500 5.014679
291.000 4.939450
293.000 4.830275
295.000 4.709174
297.000 4.630275
299.000 4.533028
301.000 4.424771
303.000 4.319266
305.000 4.215596
307.000 4.115596
309.000 4.017431
311.000 3.924771
313.000 3.831193
315.000 3.744037
317.000 3.659633
319.000 3.555046
321.000 3.478899
323.000 3.416514
325.000 3.343119
327.000 3.272477
329.000 3.200000
331.000 3.133945
332.200 3.136697
332.300 3.152294
332.400 3.133945
332.500 3.121101
332.600 3.106422
332.700 3.098165
332.800 3.087156
332.900 3.085321
333.000 3.081651
333.100 3.077982
333.200 3.066972
333.300 3.042202
333.400 3.024771
333.500 3.009174
333.600 2.997248
333.700 2.989908
333.800 2.973394
333.900 2.961468
334.000 2.944954
334.100 2.963303
334.200 2.984404
334.300 3.038532
334.400 3.071560
334.500 3.098165
334.600 3.122936
334.700 3.131193
334.800 3.090826
334.900 3.019266
335.000 2.900000
335.100 2.888073
335.200 2.917431
335.300 2.929358
335.400 2.920183
335.500 2.900917
335.600 2.902752
335.700 2.911927
335.800 2.928440
335.900 2.942202
336.000 2.948624
336.100 2.940367
336.200 2.943119
336.300 2.931193
336.400 2.925688
336.500 2.896330
336.600 2.869725
336.700 2.846789
336.800 2.840367
336.900 2.851376
337.000 2.881651
337.100 2.879817
337.200 2.845872
337.300 2.834862
337.400 2.844037
337.500 2.877982
337.600 2.893578
337.700 2.862385
337.800 2.855046
337.900 2.859633
338.000 2.892661
338.100 2.921101
338.200 2.927523
338.300 2.917431
338.400 2.904587
338.500 2.919266
338.600 2.941284
338.700 2.949541
338.800 2.943119
338.900 2.921101
339.000 2.919266
339.100 2.922936
339.200 2.940367
339.300 2.953211
339.400 2.983486
339.500 2.981651
339.600 2.958716
339.700 2.921101
339.800 2.891743
339.900 2.827523
340.000 2.792661
340.100 2.803670
340.200 2.786239
340.300 2.772477
340.400 2.779817
340.500 2.788073
340.600 2.784404
340.700 2.794495
340.800 2.809174
340.900 2.818349
341.000 2.817431
341.100 2.778899
341.200 2.779817
341.300 2.804587
341.400 2.834862
341.500 2.850459
341.600 2.847706
341.700 2.843119
341.800 2.848624
341.900 2.855963
342.000 2.852294
342.100 2.851376
342.200 2.844954
342.300 2.850459
342.400 2.850459
342.500 2.841284
342.600 2.844954
342.700 2.847706
342.800 2.864220
342.900 2.866972
343.000 2.844037
343.100 2.839450
343.200 2.831193
343.300 2.835780
343.400 2.839450
343.500 2.851376
343.600 2.856881
343.700 2.847706
343.800 2.834862
343.900 2.816514
344.000 2.776147
344.100 2.761468
344.200 2.763303
344.300 2.786239
344.400 2.801835
344.500 2.777982
344.600 2.765138
344.700 2.758716
344.800 2.777982
344.900 2.798165
345.000 2.739450
345.100 2.694495
345.200 2.675229
345.300 2.675229
345.400 2.688073
345.500 2.688991
345.600 2.690826
345.700 2.688073
345.800 2.681651
345.900 2.675229
346.000 2.667890
346.100 2.665138
346.200 2.679817
346.300 2.746789
346.400 2.711009
346.500 2.706422
346.600 2.718349
346.700 2.715596
346.800 2.706422
346.900 2.703670
347.000 2.711009
347.100 2.680734
347.200 2.675229
347.300 2.700000
347.400 2.702752
347.500 2.692661
347.600 2.670642
347.700 2.619266
347.800 2.572477
347.900 2.556881
348.000 2.579817
348.100 2.614679
348.200 2.601835
348.300 2.575229
348.400 2.581651
348.500 2.630275
348.600 2.652294
348.700 2.666055
348.800 2.700917
348.900 2.711009
349.000 2.697248
349.100 2.690826
349.200 2.710092
349.300 2.707339
349.400 2.696330
349.500 2.682569
349.600 2.659633
349.700 2.663303
349.800 2.679817
349.900 2.677064
350.000 2.637615
350.100 2.592661
350.200 2.598165
350.300 2.610092
350.400 2.590826
350.500 2.561468
350.600 2.551376
350.700 2.561468
350.800 2.578899
350.900 2.580734
351.000 2.581651
351.100 2.582569
351.200 2.573394
351.300 2.558716
351.400 2.565138
351.500 2.577064
351.600 2.591743
351.700 2.578899
351.800 2.577064
351.900 2.588073
352.000 2.591743
352.100 2.586239
352.200 2.576147
352.300 2.574312
352.400 2.596330
352.500 2.575229
352.600 2.567890
352.700 2.566055
352.800 2.573394
352.900 2.589908
353.000 2.597248
353.100 2.604587
353.200 2.617431
353.300 2.602752
353.400 2.577064
353.500 2.571560
353.600 2.576147
353.700 2.556881
353.800 2.554128
353.900 2.555963
354.000 2.573394
354.100 2.584404
354.200 2.582569
354.300 2.576147
354.400 2.583486
354.500 2.588991
354.600 2.576147
354.700 2.579817
354.800 2.588073
354.900 2.588073
355.000 2.574312
355.100 2.565138
355.200 2.572477
355.300 2.580734
355.400 2.578899
355.500 2.568807
355.600 2.556881
355.700 2.561468
355.800 2.566055
355.900 2.562385
356.000 2.553211
356.100 2.564220
356.200 2.576147
356.300 2.568807
356.400 2.552294
356.500 2.554128
356.600 2.560550
356.700 2.540367
356.800 2.546789
356.900 2.536697
357.000 2.507339
357.100 2.446789
357.200 2.427523
357.300 2.431193
357.400 2.424771
357.500 2.426606
357.600 2.439450
357.700 2.438532
357.800 2.431193
357.900 2.422018
358.000 2.429358
358.100 2.441284
358.200 2.439450
358.300 2.431193
358.400 2.425688
358.500 2.419266
358.600 2.412844
358.700 2.403670
358.800 2.394495
358.900 2.396330
359.000 2.416514
359.100 2.423853
359.200 2.413761
359.300 2.411927
359.400 2.414679
359.500 2.411927
359.600 2.406422
359.700 2.409174
359.800 2.411927
359.900 2.417431
360.000 2.433945
360.100 2.432110
360.200 2.440367
360.300 2.431193
360.400 2.418349
360.500 2.415596
360.600 2.416514
360.700 2.418349
360.800 2.428440
360.900 2.438532
361.000 2.438532
361.100 2.412844
361.200 2.409174
361.300 2.400917
361.400 2.388073
361.500 2.387156
361.600 2.404587
361.700 2.417431
361.800 2.433028
361.900 2.442202
362.000 2.423853
362.100 2.419266
362.200 2.438532
362.300 2.437615
362.400 2.428440
362.500 2.429358
362.600 2.443119
362.700 2.450459
362.800 2.439450
362.900 2.426606
363.000 2.433945
363.100 2.441284
363.200 2.433028
363.300 2.421101
363.400 2.436697
363.500 2.429358
363.600 2.379817
363.700 2.359633
363.800 2.362385
363.900 2.365138
364.000 2.372477
364.100 2.384404
364.200 2.391743
364.300 2.376147
364.400 2.352294
364.500 2.350459
364.600 2.349541
364.700 2.352294
364.800 2.359633
364.900 2.364220
365.000 2.364220
365.100 2.353211
365.200 2.346789
365.300 2.344037
365.400 2.339450
365.500 2.342202
365.600 2.346789
365.700 2.340367
365.800 2.333945
365.900 2.326606
366.000 2.316514
366.100 2.313761
366.200 2.311927
366.300 2.322018
366.400 2.326606
366.500 2.316514
366.600 2.310092
366.700 2.300000
366.800 2.297248
366.900 2.303670
367.000 2.308257
367.100 2.304587
367.200 2.298165
367.300 2.289908
367.400 2.287156
367.500 2.281651
367.600 2.289908
367.700 2.277982
367.800 2.269725
367.900 2.269725
368.000 2.274312
368.100 2.285321
368.200 2.285321
368.300 2.279817
368.400 2.272477
368.500 2.263303
368.600 2.249541
368.700 2.250459
368.800 2.271560
368.900 2.300000
369.000 2.291743
369.100 2.258716
369.200 2.263303
369.300 2.285321
369.400 2.297248
369.500 2.285321
369.600 2.246789
369.700 2.224771
369.800 2.226606
369.900 2.277982
370.000 2.334862
370.100 2.333028
370.200 2.268807
370.300 2.167890
370.400 2.122018
370.500 2.122936
370.600 2.195413
370.700 2.266055
370.800 2.316514
370.900 2.288073
371.000 2.212844
371.100 2.130275
371.200 2.086239
371.300 2.111009
371.400 2.190826
371.500 2.312844
371.600 2.371560
371.700 2.394495
371.800 2.381651
371.900 2.295413
372.000 2.147706
372.100 2.069725
372.200 2.030275
372.300 2.081651
372.400 2.168807
372.500 2.274312
372.600 2.320183
372.700 2.380734
372.800 2.406422
372.900 2.411927
373.000 2.391743
373.100 2.321101
373.200 2.194495
373.300 2.073394
373.400 1.974312
373.500 1.963303
373.600 2.033945
373.700 2.175229
373.800 2.277982
373.900 2.395413
374.000 2.451376
374.100 2.485321
374.200 2.485321
374.300 2.460550
374.400 2.439450
374.500 2.406422
374.600 2.333945
374.700 2.222018
374.800 2.094495
374.900 1.937615
375.000 1.899083
375.100 1.940367
375.200 2.050459
375.300 2.151376
375.400 2.267890
375.500 2.329358
375.600 2.384404
375.700 2.390826
375.800 2.382569
375.900 2.368807
376.000 2.352294
376.100 2.341284
376.200 2.388991
376.300 2.408257
376.400 2.389908
376.500 2.344954
376.600 2.273394
376.700 2.195413
376.800 2.073394
376.900 1.931193
377.000 1.823853
377.100 1.793578
377.200 1.888991
377.300 2.036697
377.400 2.155963
377.500 2.252294
377.600 2.316514
377.700 2.357798
377.800 2.395413
377.900 2.411927
378.000 2.430275
378.100 2.443119
378.200 2.451376
378.300 2.439450
378.400 2.429358
378.500 2.441284
378.600 2.443119
378.700 2.433028
378.800 2.422936
378.900 2.405505
379.000 2.378899
379.100 2.347706
379.200 2.311009
379.300 2.262385
379.400 2.187156
379.500 2.059633
379.600 1.912844
379.700 1.768807
379.800 1.706422
379.900 1.773394
380.000 1.942202
380.100 2.078899
380.200 2.193578
380.300 2.256881
380.400 2.301835
380.500 2.341284
380.600 2.344037
380.700 2.360550
380.800 2.384404
380.900 2.407339
381.000 2.430275
381.100 2.441284
381.200 2.430275
381.300 2.412844
381.400 2.400917
381.500 2.394495
381.600 2.383486
381.700 2.367890
381.800 2.332110
381.900 2.290826
382.000 2.272477
382.100 2.283486
382.200 2.338532
382.300 2.359633
382.400 2.355963
382.500 2.338532
382.600 2.311927
382.700 2.306422
382.800 2.291743
382.900 2.248624
383.000 2.195413
383.100 2.121101
383.200 2.024771
383.300 1.887156
383.400 1.708257
383.500 1.625688
383.600 1.630275
383.700 1.748624
383.800 1.892661
383.900 2.040367
384.000 2.124771
384.100 2.200000
384.200 2.246789
384.300 2.297248
384.400 2.336697
384.500 2.365138
384.600 2.365138
384.700 2.366055
384.800 2.363303
384.900 2.367890
385.000 2.368807
385.100 2.385321
385.200 2.396330
385.300 2.388073
385.400 2.365138
385.500 2.344037
385.600 2.328440
385.700 2.330275
385.800 2.351376
385.900 2.378899
386.000 2.389908
386.100 2.388991
386.200 2.358716
386.300 2.310092
386.400 2.305505
386.500 2.307339
386.600 2.308257
386.700 2.319266
386.800 2.327523
386.900 2.325688
387.000 2.313761
387.100 2.293578
387.200 2.277982
387.300 2.280734
387.400 2.296330
387.500 2.310092
387.600 2.301835
387.700 2.285321
387.800 2.277064
387.900 2.275229
388.000 2.277064
388.100 2.249541
388.200 2.208257
388.300 2.167890
388.400 2.121101
388.500 2.036697
388.600 1.914679
388.700 1.738532
388.800 1.584404
388.900 1.522018
389.000 1.599083
389.100 1.763303
389.200 1.941284
389.300 2.054128
389.400 2.134862
389.500 2.182569
389.600 2.219266
389.700 2.249541
389.800 2.266972
389.900 2.274312
390.000 2.281651
390.100 2.299083
390.200 2.316514
390.300 2.329358
390.400 2.333028
390.500 2.327523
390.600 2.315596
390.700 2.322936
390.800 2.348624
390.900 2.359633
391.000 2.351376
391.100 2.354128
391.200 2.352294
391.300 2.334862
391.400 2.327523
391.500 2.335780
391.600 2.342202
391.700 2.341284
391.800 2.328440
391.900 2.301835
392.000 2.294495
392.100 2.292661
392.200 2.281651
392.300 2.256881
392.400 2.249541
392.500 2.259633
392.600 2.255963
392.700 2.265138
392.800 2.270642
392.900 2.274312
393.000 2.266055
393.100 2.214679
393.200 2.059633
393.300 1.844954
393.400 1.860550
393.500 2.046789
393.600 2.188991
393.700 2.249541
393.800 2.276147
393.900 2.288991
394.000 2.303670
394.100 2.313761
394.200 2.311927
394.300 2.291743
394.400 2.277064
394.500 2.254128
394.600 2.242202
394.700 2.247706
394.800 2.253211
394.900 2.252294
395.000 2.247706
395.100 2.238532
395.200 2.230275
395.300 2.225688
395.400 2.222018
395.500 2.209174
395.600 2.194495
395.700 2.184404
395.800 2.181651
395.900 2.181651
396.000 2.171560
396.100 2.154128
396.200 2.121101
396.300 2.074312
396.400 2.017431
396.500 1.948624
396.600 1.846789
396.700 1.627523
396.800 1.390826
396.900 1.284404
397.000 1.307339
397.100 1.431193
397.200 1.609174
397.300 1.758716
397.400 1.878899
397.500 1.963303
397.600 2.021101
397.700 2.057798
397.800 2.073394
397.900 2.104587
398.000 2.122018
398.100 2.136697
398.200 2.140367
398.300 2.138532
398.400 2.146789
398.500 2.157798
398.600 2.137615
398.700 2.100917
398.800 2.155963
398.900 2.172477
399.000 2.186239
399.100 2.195413
399.200 2.194495
399.300 2.188991
399.400 2.173394
399.500 2.174312
399.600 2.167890
399.700 2.168807
399.800 2.174312
399.900 2.182569
400.000 2.165138
400.100 2.149541
400.200 2.148624
400.300 2.145872
400.400 2.146789
400.500 2.149541
400.600 2.149541
400.700 2.145872
400.800 2.138532
400.900 2.124771
401.000 2.121101
401.100 2.138532
401.200 2.149541
401.300 2.159633
401.400 2.164220
401.500 2.165138
401.600 2.166972
401.700 2.176147
401.800 2.185321
401.900 2.190826
402.000 2.187156
402.100 2.173394
402.200 2.163303
402.300 2.125688
402.400 2.062385
402.500 1.998165
402.600 1.977064
402.700 2.013761
402.800 2.083486
402.900 2.125688
403.000 2.162385
403.100 2.167890
403.200 2.167890
403.300 2.164220
403.400 2.163303
403.500 2.167890
403.600 2.170642
403.700 2.168807
403.800 2.169725
403.900 2.164220
404.000 2.166972
404.100 2.176147
404.200 2.169725
404.300 2.159633
404.400 2.150459
404.500 2.141284
404.600 2.139450
404.700 2.151376
404.800 2.161468
404.900 2.166055
405.000 2.163303
405.100 2.160550
405.200 2.165138
405.300 2.155963
405.400 2.154128
405.500 2.162385
405.600 2.161468
405.700 2.162385
405.800 2.166055
405.900 2.167890
406.000 2.164220
406.100 2.147706
406.200 2.133945
406.300 2.132110
406.400 2.095413
406.500 2.009174
406.600 2.028440
406.700 2.061468
406.800 2.062385
406.900 2.053211
407.000 2.039450
407.100 2.032110
407.200 2.037615
407.300 2.033028
407.400 2.036697
407.500 2.033945
407.600 2.020183
407.700 2.011009
407.800 2.014679
407.900 2.033028
408.000 2.045872
408.100 2.050459
408.200 2.047706
408.300 2.043119
408.400 2.024771
408.500 2.018349
408.600 2.011009
408.700 2.020183
408.800 2.024771
408.900 2.019266
409.000 2.001835
409.100 1.988991
409.200 1.981651
409.300 1.959633
409.400 1.932110
409.500 1.887156
409.600 1.838532
409.700 1.786239
409.800 1.691743
409.900 1.575229
410.000 1.433028
410.100 1.305505
410.200 1.283486
410.300 1.377982
410.400 1.538532
410.500 1.690826
410.600 1.779817
410.700 1.832110
410.800 1.873394
410.900 1.893578
411.000 1.913761
411.100 1.932110
411.200 1.949541
411.300 1.963303
411.400 1.980734
411.500 1.997248
411.600 2.009174
411.700 2.000000
411.800 1.978899
411.900 1.964220
412.000 1.954128
412.100 1.958716
412.200 1.966055
412.300 1.979817
412.400 1.991743
412.500 2.000000
412.600 1.991743
412.700 1.970642
412.800 1.950459
412.900 1.944037
413.000 1.948624
413.100 1.958716
413.200 1.966972
413.300 1.976147
413.400 1.992661
413.500 2.002752
413.600 2.003670
413.700 2.002752
413.800 2.007339
413.900 2.006422
414.000 2.005505
414.100 2.000000
414.200 1.974312
