# Wavelength (nm)   F_lamA (normalized erg/cm2/s/A)9.100 0.000000
9.400 0.000001
9.600 0.000002
9.800 0.000002
10.000 0.000004
10.200 0.000006
10.400 0.000009
10.600 0.000013
10.800 0.000019
11.000 0.000026
11.400 0.000052
11.800 0.000096
12.100 0.000148
12.500 0.000255
12.700 0.000330
12.800 0.000374
13.100 0.000537
13.200 0.000603
13.400 0.000757
13.700 0.001048
14.000 0.001429
14.300 0.001919
14.700 0.002783
15.100 0.003944
15.500 0.005471
15.900 0.007447
16.200 0.009274
16.600 0.012240
17.000 0.015911
17.300 0.019181
17.700 0.024322
18.000 0.028825
18.200 0.032157
18.600 0.039674
19.100 0.050836
19.400 0.058495
19.800 0.070026
20.200 0.083099
20.500 0.093926
21.000 0.114129
21.600 0.142033
22.000 0.162940
22.300 0.179842
22.700 0.204137
23.000 6.725352
23.400 7.407570
24.000 9.564261
24.600 13.080986
25.200 15.985915
25.700 12.363556
26.000 17.662852
26.400 22.301937
26.900 22.698063
27.400 23.050176
27.900 22.161092
28.400 23.314261
29.000 23.199824
29.600 21.324824
30.100 14.779930
30.800 18.371479
31.800 22.869718
32.800 22.926937
33.800 22.473592
34.800 22.059859
35.700 22.381162
36.600 22.640845
37.500 22.262324
38.500 21.073944
39.500 21.610915
40.500 21.637324
41.400 21.346831
42.200 20.809859
43.000 20.457746
44.100 20.484155
45.100 20.140845
46.000 19.586268
47.000 19.242958
48.000 19.066901
49.000 18.463908
50.000 18.411092
50.600 19.801937
51.200 23.459507
52.000 23.001761
53.000 22.588028
54.000 21.404049
55.000 21.144366
56.000 21.703345
57.000 21.421655
58.000 20.752641
59.000 20.655810
60.000 20.048415
61.000 19.480634
62.000 19.683099
63.000 19.260563
64.000 19.058099
65.000 18.626761
65.800 18.160211
66.500 18.191021
67.500 17.992958
68.500 17.345951
69.500 17.376761
70.500 16.707746
71.600 16.800176
72.600 16.553697
73.500 16.333627
74.500 15.981514
75.500 15.691021
76.500 15.294894
77.500 15.158451
78.500 14.894366
79.500 14.669894
80.500 14.476232
81.500 14.269366
82.500 14.084507
83.500 13.494718
84.500 13.613556
85.500 13.371479
86.500 13.235035
87.500 13.036972
88.500 12.830106
89.500 12.623239
90.500 12.345951
91.500 13.182218
92.500 22.869718
93.500 31.914613
94.500 46.478873
95.500 52.200704
96.500 60.431338
97.500 37.385563
98.500 61.619718
99.500 58.890845
100.500 61.003521
101.500 56.514085
102.500 34.388204
103.500 52.288732
104.500 57.922535
105.500 57.042254
106.500 53.917254
107.500 54.137324
108.500 50.352113
109.500 52.464789
110.500 50.616197
111.500 49.647887
112.500 47.271127
113.500 47.711268
114.500 45.994718
115.500 45.466549
116.500 44.586268
117.500 39.969190
118.500 42.117077
119.500 40.070423
120.500 36.672535
121.500 23.411092
122.500 35.246479
123.500 37.398768
124.500 37.002641
125.500 36.650528
126.500 35.845070
127.500 35.532570
128.500 34.907570
129.500 33.503521
130.500 32.953345
131.500 32.922535
132.500 32.020246
133.500 31.122359
134.500 30.994718
135.500 30.453345
136.500 29.718310
137.500 29.141725
138.500 28.675176
139.500 27.086268
140.500 26.470070
141.500 27.051056
142.500 26.456866
143.500 26.060739
144.200 25.770246
144.700 25.519366
145.500 25.110035
146.500 24.608275
147.500 24.168134
148.500 23.754401
149.500 23.296655
150.500 22.803697
151.200 22.460387
151.700 22.306338
152.500 21.936620
153.500 21.197183
154.500 20.625000
155.500 20.224472
156.500 20.189261
157.500 19.995599
158.500 19.722711
159.500 19.423415
160.500 18.838028
161.500 18.516725
162.500 18.226232
163.500 17.874120
164.500 17.235915
165.500 17.403169
166.500 17.213908
167.200 16.835387
167.700 16.932218
168.500 16.712148
169.500 16.386444
170.500 16.069542
171.500 15.699824
172.500 15.475352
173.500 15.356514
174.500 15.061620
175.500 14.863556
176.500 14.498239
177.500 14.366197
178.500 14.168134
179.500 13.974472
180.500 13.780810
181.500 13.521127
182.500 13.318662
183.500 13.116197
184.500 12.781690
185.500 12.513204
186.500 12.381162
187.500 12.293134
188.500 11.967430
189.500 11.703345
190.500 11.690141
191.500 11.404049
192.500 11.205986
193.500 11.135563
194.500 11.051937
195.500 10.739437
196.700 10.695423
197.600 10.607394
198.400 10.409331
199.500 10.162852
200.500 10.123239
201.500 10.004401
202.500 9.894366
203.500 9.713908
204.500 9.577465
205.500 8.683979
206.500 8.820423
207.400 9.251761
207.800 9.146127
208.500 9.097711
209.500 8.934859
210.500 8.864437
211.500 8.785211
212.500 8.679577
213.500 8.538732
214.500 8.419894
215.500 8.345070
216.500 8.186620
217.500 8.107394
218.500 7.975352
219.500 7.922535
220.500 7.803697
221.500 7.654049
222.500 7.574824
223.500 7.504401
224.500 7.398768
225.500 7.249120
226.500 7.196303
227.500 7.117077
228.500 7.033451
229.500 6.879401
230.500 6.804577
231.500 6.756162
232.500 6.417254
233.500 6.571303
234.500 6.461268
235.500 6.417254
236.500 6.311620
237.500 6.250000
238.500 6.095951
239.500 6.091549
240.500 6.012324
241.500 5.941901
242.500 5.889085
243.500 5.805458
244.500 5.743838
245.500 5.677817
246.500 5.602993
247.500 5.532570
248.500 5.479754
249.500 5.325704
250.500 5.356514
251.300 5.193662
251.800 5.264085
252.500 5.211268
253.500 5.140845
254.500 5.083627
255.500 5.048415
256.500 4.986796
257.500 4.942782
258.500 4.889965
259.500 4.828345
260.500 4.766725
261.500 4.713908
262.500 4.669894
263.500 4.617077
264.500 4.603873
265.500 4.551056
266.500 4.489437
267.500 4.445423
268.500 4.414613
269.500 4.341109
270.500 4.312940
271.500 4.258363
272.500 4.192782
273.500 4.144366
274.500 4.097711
275.500 4.060299
276.500 4.014085
277.500 4.005282
278.500 3.958187
279.500 3.856954
280.500 3.844190
281.500 3.846831
282.500 3.789613
283.500 3.753081
284.500 3.723151
285.500 3.680458
286.500 3.652289
287.500 3.614437
288.500 3.582306
289.500 3.547095
291.000 3.502641
293.000 3.428697
295.000 3.348151
297.000 3.299736
299.000 3.237676
301.000 3.166813
303.000 3.095511
305.000 3.026408
307.000 2.958187
309.000 2.894806
311.000 2.830546
313.000 2.767606
315.000 2.710827
317.000 2.654930
319.000 2.580546
321.000 2.535651
323.000 2.488556
325.000 2.441461
327.000 2.396567
329.000 2.348592
331.000 2.305458
332.200 2.300176
332.300 2.317782
332.400 2.303697
332.500 2.298415
332.600 2.280810
332.700 2.265405
332.800 2.261444
332.900 2.264525
333.000 2.267606
333.100 2.264525
333.200 2.252201
333.300 2.230634
333.400 2.219190
333.500 2.214349
333.600 2.209507
333.700 2.191461
333.800 2.163732
333.900 2.157570
334.000 2.148768
334.100 2.172975
334.200 2.187500
334.300 2.226673
334.400 2.256602
334.500 2.275088
334.600 2.299296
334.700 2.302817
334.800 2.268486
334.900 2.200704
335.000 2.105194
335.100 2.113556
335.200 2.150528
335.300 2.171655
335.400 2.168134
335.500 2.143486
335.600 2.139965
335.700 2.145687
335.800 2.150088
335.900 2.147007
336.000 2.159771
336.100 2.153169
336.200 2.163292
336.300 2.152729
336.400 2.147447
336.500 2.126320
336.600 2.105634
336.700 2.089789
336.800 2.078345
336.900 2.084947
337.000 2.117518
337.100 2.122799
337.200 2.098592
337.300 2.092430
337.400 2.102993
337.500 2.143046
337.600 2.156690
337.700 2.116637
337.800 2.094630
337.900 2.083627
338.000 2.107835
338.100 2.136884
338.200 2.160211
338.300 2.165493
338.400 2.156250
338.500 2.158451
338.600 2.163292
338.700 2.162852
338.800 2.159331
338.900 2.149208
339.000 2.150528
339.100 2.154489
339.200 2.160651
339.300 2.162412
339.400 2.182218
339.500 2.188380
339.600 2.182658
339.700 2.155810
339.800 2.133363
339.900 2.089349
340.000 2.066461
340.100 2.086268
340.200 2.067342
340.300 2.055898
340.400 2.056338
340.500 2.062060
340.600 2.051056
340.700 2.056778
340.800 2.069982
340.900 2.082746
341.000 2.087588
341.100 2.051937
341.200 2.057218
341.300 2.079665
341.400 2.107835
341.500 2.120158
341.600 2.122799
341.700 2.123239
341.800 2.126761
341.900 2.134683
342.000 2.132482
342.100 2.128521
342.200 2.117518
342.300 2.111796
342.400 2.109155
342.500 2.106074
342.600 2.119718
342.700 2.126761
342.800 2.133803
342.900 2.132482
343.000 2.109595
343.100 2.112236
343.200 2.112676
343.300 2.122799
343.400 2.123680
343.500 2.122359
343.600 2.126761
343.700 2.124560
343.800 2.128961
343.900 2.117077
344.000 2.083187
344.100 2.060739
344.200 2.052377
344.300 2.069542
344.400 2.082746
344.500 2.073063
344.600 2.073504
344.700 2.076144
344.800 2.097711
344.900 2.111796
345.000 2.060739
345.100 2.018046
345.200 1.998239
345.300 1.994278
345.400 2.004401
345.500 2.007482
345.600 2.008803
345.700 2.007923
345.800 2.002641
345.900 2.000880
346.000 1.994278
346.100 1.990757
346.200 1.999560
346.300 2.044014
346.400 2.023768
346.500 2.026849
346.600 2.033891
346.700 2.031250
346.800 2.025968
346.900 2.020246
347.000 2.029049
347.100 2.015405
347.200 2.011884
347.300 2.021567
347.400 2.025088
347.500 2.016285
347.600 2.003961
347.700 1.966989
347.800 1.934419
347.900 1.918134
348.000 1.935299
348.100 1.961268
348.200 1.947623
348.300 1.922095
348.400 1.921215
348.500 1.959067
348.600 1.992518
348.700 2.012324
348.800 2.037412
348.900 2.035651
349.000 2.019366
349.100 2.014965
349.200 2.031690
349.300 2.036532
349.400 2.026408
349.500 2.011884
349.600 2.000880
349.700 2.005722
349.800 2.014965
349.900 2.007923
350.000 1.974472
350.100 1.954665
350.200 1.963908
350.300 1.973592
350.400 1.958187
350.500 1.933099
350.600 1.921215
350.700 1.925616
350.800 1.945423
350.900 1.950704
351.000 1.952905
351.100 1.953785
351.200 1.948063
351.300 1.934859
351.400 1.935299
351.500 1.945423
351.600 1.956426
351.700 1.953785
351.800 1.953345
351.900 1.956426
352.000 1.958187
352.100 1.949824
352.200 1.941021
352.300 1.943662
352.400 1.957306
352.500 1.953785
352.600 1.949824
352.700 1.944102
352.800 1.947183
352.900 1.957746
353.000 1.969190
353.100 1.979313
353.200 1.991197
353.300 1.981954
353.400 1.960387
353.500 1.952905
353.600 1.953785
353.700 1.941901
353.800 1.941021
353.900 1.941901
354.000 1.952905
354.100 1.959067
354.200 1.960827
354.300 1.958187
354.400 1.962588
354.500 1.967430
354.600 1.968310
354.700 1.977113
354.800 1.983715
354.900 1.976673
355.000 1.968750
355.100 1.968310
355.200 1.977993
355.300 1.983715
355.400 1.974032
355.500 1.964349
355.600 1.955986
355.700 1.957746
355.800 1.959947
355.900 1.954225
356.000 1.947183
356.100 1.953785
356.200 1.960387
356.300 1.955106
356.400 1.942782
356.500 1.939701
356.600 1.941901
356.700 1.932658
356.800 1.939701
356.900 1.933099
357.000 1.908451
357.100 1.859595
357.200 1.842430
357.300 1.843310
357.400 1.843310
357.500 1.848151
357.600 1.861356
357.700 1.859595
357.800 1.852993
357.900 1.849032
358.000 1.853433
358.100 1.859595
358.200 1.853433
358.300 1.848151
358.400 1.849912
358.500 1.843750
358.600 1.835827
358.700 1.831426
358.800 1.822183
358.900 1.823944
359.000 1.836708
359.100 1.837588
359.200 1.832746
359.300 1.835827
359.400 1.839789
359.500 1.841989
359.600 1.840229
359.700 1.845511
359.800 1.854754
359.900 1.861796
360.000 1.871039
360.100 1.868838
360.200 1.870599
360.300 1.860475
360.400 1.850352
360.500 1.846831
360.600 1.848151
360.700 1.851232
360.800 1.860915
360.900 1.869278
361.000 1.872359
361.100 1.857835
361.200 1.852993
361.300 1.848151
361.400 1.838908
361.500 1.834507
361.600 1.844190
361.700 1.853873
361.800 1.865757
361.900 1.874560
362.000 1.861356
362.100 1.859595
362.200 1.879401
362.300 1.884243
362.400 1.875880
362.500 1.875440
362.600 1.885123
362.700 1.896127
362.800 1.893046
362.900 1.879401
363.000 1.875880
363.100 1.872799
363.200 1.870158
363.300 1.874120
363.400 1.895246
363.500 1.891285
363.600 1.849472
363.700 1.832306
363.800 1.834507
363.900 1.837588
364.000 1.840229
364.100 1.845070
364.200 1.849912
364.300 1.842430
364.400 1.827025
364.500 1.823944
364.600 1.816901
364.700 1.820423
364.800 1.824824
364.900 1.823504
365.000 1.822183
365.100 1.818662
365.200 1.816901
365.300 1.814261
365.400 1.813820
365.500 1.818222
365.600 1.826585
365.700 1.823504
365.800 1.816901
365.900 1.811180
366.000 1.799736
366.100 1.801937
366.200 1.801056
366.300 1.808979
366.400 1.811180
366.500 1.804577
366.600 1.802817
366.700 1.797975
366.800 1.796215
366.900 1.802817
367.000 1.808539
367.100 1.805458
367.200 1.802377
367.300 1.792694
367.400 1.786972
367.500 1.776408
367.600 1.779049
367.700 1.775968
367.800 1.770687
367.900 1.771567
368.000 1.775528
368.100 1.786532
368.200 1.784331
368.300 1.780370
368.400 1.779489
368.500 1.772007
368.600 1.757923
368.700 1.755722
368.800 1.780810
368.900 1.814701
369.000 1.809859
369.100 1.774648
369.200 1.779049
369.300 1.808979
369.400 1.837148
369.500 1.830546
369.600 1.783451
369.700 1.759243
369.800 1.761004
369.900 1.815141
370.000 1.876761
370.100 1.884243
370.200 1.831866
370.300 1.733715
370.400 1.684859
370.500 1.681338
370.600 1.747799
370.700 1.813820
370.800 1.870599
370.900 1.846391
371.000 1.775088
371.100 1.696303
371.200 1.651408
371.300 1.675616
371.400 1.751761
371.500 1.874120
371.600 1.940581
371.700 1.974912
371.800 1.965229
371.900 1.888204
372.000 1.746479
372.100 1.662852
372.200 1.610035
372.300 1.650088
372.400 1.744278
372.500 1.867958
372.600 1.919014
372.700 1.980634
372.800 2.006602
372.900 2.017165
373.000 1.998239
373.100 1.926056
373.200 1.794014
373.300 1.676937
373.400 1.574384
373.500 1.556778
373.600 1.620158
373.700 1.756162
373.800 1.862676
373.900 1.990317
374.000 2.054137
374.100 2.094630
374.200 2.099032
374.300 2.081426
374.400 2.056778
374.500 2.014525
374.600 1.938820
374.700 1.831426
374.800 1.712588
374.900 1.563820
375.000 1.517606
375.100 1.547975
375.200 1.657570
375.300 1.769806
375.400 1.897007
375.500 1.964349
375.600 2.027729
375.700 2.035211
375.800 2.019806
375.900 1.997359
376.000 1.983715
376.100 1.982835
376.200 2.025088
376.300 2.039173
376.400 2.023768
376.500 1.981074
376.600 1.918134
376.700 1.846391
376.800 1.726673
376.900 1.591989
377.000 1.489437
377.100 1.450704
377.200 1.535651
377.300 1.676937
377.400 1.793134
377.500 1.892606
377.600 1.965669
377.700 2.018046
377.800 2.069102
377.900 2.095511
378.000 2.122359
378.100 2.137324
378.200 2.149208
378.300 2.140405
378.400 2.134243
378.500 2.139965
378.600 2.133803
378.700 2.121919
378.800 2.107835
378.900 2.090229
379.000 2.065581
379.100 2.033891
379.200 1.988996
379.300 1.933539
379.400 1.858715
379.500 1.728433
379.600 1.595070
379.700 1.457746
379.800 1.393046
379.900 1.443222
380.000 1.591989
380.100 1.730194
380.200 1.860035
380.300 1.934419
380.400 1.993838
380.500 2.042694
380.600 2.060299
380.700 2.080986
380.800 2.100792
380.900 2.125440
381.000 2.148768
381.100 2.160651
381.200 2.143926
381.300 2.116197
381.400 2.094190
381.500 2.088908
381.600 2.089789
381.700 2.092870
381.800 2.079225
381.900 2.053257
382.000 2.029049
382.100 2.025968
382.200 2.058099
382.300 2.070423
382.400 2.059419
382.500 2.034771
382.600 2.003081
382.700 1.991197
382.800 1.967430
382.900 1.926056
383.000 1.877201
383.100 1.803257
383.200 1.710827
383.300 1.578345
383.400 1.412852
383.500 1.338028
383.600 1.333187
383.700 1.430458
383.800 1.563380
383.900 1.703345
384.000 1.797535
384.100 1.887764
384.200 1.940581
384.300 1.996479
384.400 2.032130
384.500 2.061620
384.600 2.075264
384.700 2.082746
384.800 2.084067
384.900 2.083627
385.000 2.085387
385.100 2.102553
385.200 2.114877
385.300 2.111356
385.400 2.095951
385.500 2.080106
385.600 2.066901
385.700 2.068662
385.800 2.087148
385.900 2.103873
386.000 2.112236
386.100 2.109155
386.200 2.086268
386.300 2.046655
386.400 2.042694
386.500 2.048415
386.600 2.053257
386.700 2.068662
386.800 2.081426
386.900 2.084067
387.000 2.077905
387.100 2.061620
387.200 2.038292
387.300 2.029049
387.400 2.037852
387.500 2.051496
387.600 2.048415
387.700 2.031250
387.800 2.014525
387.900 2.001320
388.000 1.995158
388.100 1.970511
388.200 1.928257
388.300 1.886884
388.400 1.834507
388.500 1.750000
388.600 1.632923
388.700 1.467430
388.800 1.331426
388.900 1.268926
389.000 1.323063
389.100 1.465669
389.200 1.636004
389.300 1.750000
389.400 1.837588
389.500 1.887324
389.600 1.930898
389.700 1.970951
389.800 1.989877
389.900 1.995599
390.000 1.998239
390.100 2.020246
390.200 2.047975
390.300 2.063380
390.400 2.064701
390.500 2.054137
390.600 2.043574
390.700 2.052377
390.800 2.080106
390.900 2.104754
391.000 2.107835
391.100 2.110475
391.200 2.102113
391.300 2.081866
391.400 2.066021
391.500 2.069542
391.600 2.082306
391.700 2.088028
391.800 2.082746
391.900 2.067342
392.000 2.062500
392.100 2.062500
392.200 2.054137
392.300 2.035651
392.400 2.029930
392.500 2.042254
392.600 2.040493
392.700 2.041373
392.800 2.027289
392.900 2.008803
393.000 1.987676
393.100 1.938380
393.200 1.813380
393.300 1.650968
393.400 1.645687
393.500 1.763204
393.600 1.882923
393.700 1.949384
393.800 1.989437
393.900 2.015845
394.000 2.042694
394.100 2.061620
394.200 2.064701
394.300 2.047095
394.400 2.029049
394.500 2.011884
394.600 2.007482
394.700 2.016725
394.800 2.022447
394.900 2.018486
395.000 2.009683
395.100 1.997799
395.200 1.990317
395.300 1.992518
395.400 1.996479
395.500 1.988556
395.600 1.970511
395.700 1.954665
395.800 1.949824
395.900 1.946303
396.000 1.929577
396.100 1.904489
396.200 1.865317
396.300 1.826144
396.400 1.771567
396.500 1.700704
396.600 1.591549
396.700 1.391285
396.800 1.185739
396.900 1.066461
397.000 1.058979
397.100 1.161092
397.200 1.327465
397.300 1.479313
397.400 1.612236
397.500 1.705546
397.600 1.774208
397.700 1.824384
397.800 1.843310
397.900 1.878961
398.000 1.898768
398.100 1.917254
398.200 1.925176
398.300 1.927817
398.400 1.941901
398.500 1.954665
398.600 1.951144
398.700 1.931778
398.800 1.965229
398.900 1.975792
399.000 1.982394
399.100 1.986356
399.200 1.987236
399.300 1.991197
399.400 1.990757
399.500 1.992958
399.600 1.981074
399.700 1.972711
399.800 1.971831
399.900 1.974912
400.000 1.963468
400.100 1.952465
400.200 1.949824
400.300 1.946303
400.400 1.949824
400.500 1.952905
400.600 1.956426
400.700 1.959067
400.800 1.961708
400.900 1.956426
401.000 1.952025
401.100 1.955986
401.200 1.963028
401.300 1.966109
401.400 1.968750
401.500 1.970951
401.600 1.978873
401.700 1.991637
401.800 2.001320
401.900 2.007042
402.000 2.003521
402.100 1.992958
402.200 1.978873
402.300 1.946743
402.400 1.901849
402.500 1.864437
402.600 1.859155
402.700 1.888204
402.800 1.925616
402.900 1.951144
403.000 1.968750
403.100 1.970951
403.200 1.971831
403.300 1.970070
403.400 1.971831
403.500 1.980194
403.600 1.988116
403.700 1.991197
403.800 1.993838
403.900 1.991637
404.000 1.996919
404.100 2.002201
404.200 1.994718
404.300 1.985475
404.400 1.973151
404.500 1.957746
404.600 1.949384
404.700 1.957746
404.800 1.969630
404.900 1.979313
405.000 1.979754
405.100 1.977553
405.200 1.977553
405.300 1.968310
405.400 1.966549
405.500 1.974912
405.600 1.976673
405.700 1.979754
405.800 1.982835
405.900 1.985915
406.000 1.984595
406.100 1.968750
406.200 1.956426
406.300 1.945423
406.400 1.915053
406.500 1.856514
406.600 1.867077
406.700 1.886444
406.800 1.888204
406.900 1.886004
407.000 1.876761
407.100 1.866637
407.200 1.863116
407.300 1.859595
407.400 1.867077
407.500 1.865757
407.600 1.851232
407.700 1.838908
407.800 1.836268
407.900 1.852553
408.000 1.869278
408.100 1.877641
408.200 1.875880
408.300 1.868838
408.400 1.855634
408.500 1.847271
408.600 1.840669
408.700 1.847711
408.800 1.850792
408.900 1.848592
409.000 1.834067
409.100 1.819542
409.200 1.805018
409.300 1.778169
409.400 1.749120
409.500 1.702465
409.600 1.653609
409.700 1.597711
409.800 1.506162
409.900 1.397447
410.000 1.260123
410.100 1.137764
410.200 1.106514
410.300 1.181778
410.400 1.330106
410.500 1.480194
410.600 1.573504
410.700 1.633803
410.800 1.679137
410.900 1.702905
411.000 1.725792
411.100 1.745158
411.200 1.768046
411.300 1.787412
411.400 1.808539
411.500 1.827025
411.600 1.838468
411.700 1.834067
411.800 1.819542
411.900 1.810739
412.000 1.806778
412.100 1.805898
412.200 1.805898
412.300 1.811180
412.400 1.822183
412.500 1.835387
412.600 1.827025
412.700 1.805898
412.800 1.785211
412.900 1.775088
413.000 1.777289
413.100 1.787852
413.200 1.797535
413.300 1.809419
413.400 1.826585
413.500 1.835827
413.600 1.840229
413.700 1.842430
413.800 1.850792
413.900 1.855634
414.000 1.856954
414.100 1.851673
414.200 1.835387
414.300 1.816901
414.400 1.804137
