# Wavelength (nm)   F_lamA (normalized erg/cm2/s/A)9.100 0.000513
9.400 0.000574
9.600 0.000615
9.800 0.000659
10.000 0.000705
10.200 0.000754
10.400 0.000805
10.600 0.000861
10.800 0.000922
11.000 0.000988
11.400 0.001145
11.800 0.001344
12.100 0.001531
12.500 0.001844
12.700 0.002035
12.800 0.002141
13.100 0.002502
13.200 0.002639
13.400 0.002941
13.700 0.003470
14.000 0.004105
14.300 0.004861
14.700 0.006093
15.100 0.007617
15.500 0.009483
15.900 0.011737
16.200 0.013721
16.600 0.016792
17.000 0.020403
17.300 0.023501
17.700 0.028198
18.000 0.032174
18.200 0.035051
18.600 0.041391
19.100 0.050437
19.400 0.056556
19.800 0.065450
20.200 0.075333
20.500 0.083352
21.000 0.098024
21.600 0.117750
22.000 0.132231
22.300 0.143786
22.700 0.160167
23.000 3.930065
23.400 4.401368
24.000 5.663246
24.600 7.658685
25.200 9.642721
25.700 7.666287
26.000 10.706956
26.400 13.515773
26.900 13.937666
27.400 14.222729
27.900 13.329532
28.400 14.652223
29.000 14.644622
29.600 13.238312
30.100 8.650703
30.800 10.684151
31.800 13.732421
32.800 13.774230
33.800 13.394147
34.800 13.059673
35.700 13.470163
36.600 14.051691
37.500 13.785633
38.500 12.767009
39.500 13.424553
40.500 13.641201
41.400 13.477765
42.200 13.071076
43.000 12.767009
44.100 12.987457
45.100 12.824021
46.000 12.383124
47.000 12.170277
48.000 12.155074
49.000 11.672368
50.000 11.793995
50.600 12.812619
51.200 16.100342
52.000 15.670848
53.000 15.256556
54.000 14.215127
55.000 14.017484
56.000 14.861269
57.000 14.732041
58.000 14.215127
59.000 14.203725
60.000 13.671608
61.000 13.287723
62.000 13.705815
63.000 13.367541
64.000 13.310528
65.000 12.991258
65.800 12.614975
66.500 12.736602
67.500 12.671988
68.500 12.101862
69.500 12.253896
70.500 11.649563
71.600 11.927024
72.600 11.778791
73.500 11.649563
74.500 11.387305
75.500 11.182060
76.500 10.855188
77.500 10.828582
78.500 10.649943
79.500 10.520715
80.500 10.402889
81.500 10.285063
82.500 10.174838
83.500 9.619916
84.500 9.859369
85.500 9.688331
86.500 9.623717
87.500 9.502090
88.500 9.361460
89.500 9.224629
90.500 9.026986
91.500 9.315849
92.500 17.696693
93.500 25.085519
94.500 36.096541
95.500 41.049031
96.500 47.434436
97.500 28.057773
98.500 48.612695
99.500 46.560243
100.500 48.650703
101.500 44.811859
102.500 26.985937
103.500 40.935006
104.500 47.396427
105.500 46.712277
106.500 43.747624
107.500 44.469783
108.500 41.163056
109.500 43.329532
110.500 41.657165
111.500 40.935006
112.500 38.730521
113.500 39.528696
114.500 37.939947
115.500 37.651083
116.500 37.092360
117.500 32.614975
118.500 34.952490
119.500 32.671988
120.500 29.243634
121.500 18.407450
122.500 28.266819
123.500 31.018624
124.500 31.075637
125.500 30.767769
126.500 29.996199
127.500 30.095021
128.500 29.661726
129.500 28.217408
130.500 27.772710
131.500 28.057773
132.500 27.236792
133.500 26.374002
134.500 26.438616
135.500 25.986317
136.500 25.252756
137.500 24.800456
138.500 24.484987
139.500 22.850627
140.500 22.337514
141.500 23.131889
142.500 22.573166
143.500 22.337514
144.200 22.147472
144.700 21.930825
145.500 21.554542
146.500 21.102242
147.500 20.748765
148.500 20.418092
149.500 20.030407
150.500 19.581908
151.200 19.198024
151.700 19.133409
152.500 18.817940
153.500 18.023565
154.500 17.525656
155.500 17.149373
156.500 17.229190
157.500 17.183580
158.500 16.997339
159.500 16.799696
160.500 16.214367
161.500 15.944508
162.500 15.697453
163.500 15.488407
164.500 14.994299
165.500 15.055112
166.500 14.990498
167.200 14.557203
167.700 14.777651
168.500 14.602813
169.500 14.298746
170.500 13.990878
171.500 13.645002
172.500 13.447358
173.500 13.428354
174.500 13.158495
175.500 13.033067
176.500 12.645382
177.500 12.592170
178.500 12.436336
179.500 12.303307
180.500 12.151273
181.500 11.881414
182.500 11.740783
183.500 11.558343
184.500 11.197263
185.500 10.976815
186.500 10.889396
187.500 10.862790
188.500 10.505511
189.500 10.247054
190.500 10.315469
191.500 10.038008
192.500 9.840365
193.500 9.840365
194.500 9.806157
195.500 9.471684
196.700 9.498290
197.600 9.460281
198.400 9.247434
199.500 9.015583
200.500 9.004181
201.500 8.909160
202.500 8.848347
203.500 8.654504
204.500 8.544280
205.500 7.753706
206.500 7.924743
207.400 8.308628
207.800 8.179399
208.500 8.152794
209.500 7.985557
210.500 7.951349
211.500 7.882934
212.500 7.810718
213.500 7.677689
214.500 7.563664
215.500 7.518054
216.500 7.366021
217.500 7.301406
218.500 7.187381
219.500 7.160775
220.500 7.039149
221.500 6.906119
222.500 6.826302
223.500 6.784493
224.500 6.685671
225.500 6.548841
226.500 6.510832
227.500 6.446218
228.500 6.377803
229.500 6.229571
230.500 6.168757
231.500 6.115545
232.500 5.754466
233.500 5.948309
234.500 5.838084
235.500 5.819080
236.500 5.708856
237.500 5.667047
238.500 5.515013
239.500 5.522615
240.500 5.450399
241.500 5.389586
242.500 5.355378
243.500 5.267959
244.500 5.226150
245.500 5.169137
246.500 5.093120
247.500 5.036108
248.500 4.994299
249.500 4.827062
250.500 4.887875
251.300 4.732041
251.800 4.800456
252.500 4.747244
253.500 4.682630
254.500 4.629418
255.500 4.614215
256.500 4.553402
257.500 4.526796
258.500 4.481186
259.500 4.424173
260.500 4.367161
261.500 4.317750
262.500 4.279742
263.500 4.234132
264.500 4.237932
265.500 4.192322
266.500 4.127708
267.500 4.093501
268.500 4.066895
269.500 3.998480
270.500 3.971874
271.500 3.918662
272.500 3.861650
273.500 3.823641
274.500 3.765488
275.500 3.733181
276.500 3.700494
277.500 3.696693
278.500 3.652984
279.500 3.544280
280.500 3.545420
281.500 3.556062
282.500 3.503611
283.500 3.462942
284.500 3.437096
285.500 3.400608
286.500 3.380084
287.500 3.343596
288.500 3.315089
289.500 3.283162
291.000 3.245534
293.000 3.175599
295.000 3.102242
297.000 3.058913
299.000 3.001140
301.000 2.942227
303.000 2.881414
305.000 2.821741
307.000 2.762448
309.000 2.706575
311.000 2.651463
313.000 2.595971
315.000 2.545800
317.000 2.496769
319.000 2.430635
321.000 2.393387
323.000 2.351577
325.000 2.310908
327.000 2.271760
329.000 2.228430
331.000 2.190042
332.200 2.185101
332.300 2.198784
332.400 2.185481
332.500 2.176359
332.600 2.162296
332.700 2.151653
332.800 2.149373
332.900 2.152033
333.000 2.154314
333.100 2.153934
333.200 2.145572
333.300 2.128088
333.400 2.114405
333.500 2.104903
333.600 2.096921
333.700 2.084759
333.800 2.066515
333.900 2.059673
334.000 2.049411
334.100 2.066135
334.200 2.079818
334.300 2.114025
334.400 2.139111
334.500 2.155074
334.600 2.172938
334.700 2.178639
334.800 2.150513
334.900 2.099202
335.000 2.020905
335.100 2.017104
335.200 2.044090
335.300 2.059673
335.400 2.054352
335.500 2.033827
335.600 2.032687
335.700 2.041429
335.800 2.049411
335.900 2.050931
336.000 2.056252
336.100 2.047130
336.200 2.054732
336.300 2.049031
336.400 2.045610
336.500 2.026606
336.600 2.005701
336.700 1.988217
336.800 1.979856
336.900 1.989358
337.000 2.018624
337.100 2.022045
337.200 1.996199
337.300 1.985937
337.400 1.992778
337.500 2.026226
337.600 2.041429
337.700 2.011403
337.800 1.996959
337.900 1.990878
338.000 2.011022
338.100 2.034208
338.200 2.052071
338.300 2.057393
338.400 2.051691
338.500 2.055112
338.600 2.058533
338.700 2.054732
338.800 2.050171
338.900 2.044470
339.000 2.049411
339.100 2.056632
339.200 2.062714
339.300 2.063474
339.400 2.077917
339.500 2.081338
339.600 2.077917
339.700 2.056632
339.800 2.036108
339.900 1.994299
340.000 1.966553
340.100 1.979095
340.200 1.964652
340.300 1.956670
340.400 1.956670
340.500 1.961992
340.600 1.954010
340.700 1.961231
340.800 1.974154
340.900 1.982896
341.000 1.984797
341.100 1.958191
341.200 1.963132
341.300 1.984036
341.400 2.006461
341.500 2.013303
341.600 2.012163
341.700 2.011022
341.800 2.017864
341.900 2.025086
342.000 2.022425
342.100 2.017864
342.200 2.008362
342.300 2.006461
342.400 2.007222
342.500 2.002661
342.600 2.010262
342.700 2.014823
342.800 2.022805
342.900 2.024325
343.000 2.005701
343.100 2.005321
343.200 2.003041
343.300 2.009122
343.400 2.012923
343.500 2.014443
343.600 2.018244
343.700 2.014063
343.800 2.012923
343.900 2.002281
344.000 1.974154
344.100 1.957051
344.200 1.952109
344.300 1.965032
344.400 1.972634
344.500 1.964272
344.600 1.965412
344.700 1.969593
344.800 1.989358
344.900 2.002661
345.000 1.959711
345.100 1.918662
345.200 1.898898
345.300 1.893197
345.400 1.901178
345.500 1.901938
345.600 1.904599
345.700 1.906499
345.800 1.900418
345.900 1.896997
346.000 1.890916
346.100 1.887495
346.200 1.894717
346.300 1.929304
346.400 1.913341
346.500 1.914861
346.600 1.920563
346.700 1.918662
346.800 1.912581
346.900 1.908400
347.000 1.918282
347.100 1.910300
347.200 1.904979
347.300 1.906119
347.400 1.908780
347.500 1.903459
347.600 1.896997
347.700 1.872672
347.800 1.847586
347.900 1.833143
348.000 1.843406
348.100 1.861650
348.200 1.850627
348.300 1.832763
348.400 1.835044
348.500 1.866591
348.600 1.891296
348.700 1.905359
348.800 1.923603
348.900 1.922083
349.000 1.910300
349.100 1.906880
349.200 1.921323
349.300 1.924743
349.400 1.913721
349.500 1.898138
349.600 1.889016
349.700 1.895857
349.800 1.905739
349.900 1.898138
350.000 1.863930
350.100 1.846066
350.200 1.855568
350.300 1.862410
350.400 1.847967
350.500 1.827822
350.600 1.819080
350.700 1.823261
350.800 1.837704
350.900 1.843786
351.000 1.848347
351.100 1.848347
351.200 1.841885
351.300 1.828582
351.400 1.827062
351.500 1.838464
351.600 1.847967
351.700 1.846446
351.800 1.848727
351.900 1.852908
352.000 1.855188
352.100 1.849107
352.200 1.841125
352.300 1.843406
352.400 1.854048
352.500 1.851767
352.600 1.847967
352.700 1.843406
352.800 1.844546
352.900 1.853288
353.000 1.862410
353.100 1.870011
353.200 1.879894
353.300 1.872292
353.400 1.854808
353.500 1.849487
353.600 1.849487
353.700 1.840365
353.800 1.840365
353.900 1.841505
354.000 1.849487
354.100 1.852908
354.200 1.854048
354.300 1.855188
354.400 1.860889
354.500 1.862790
354.600 1.861269
354.700 1.866591
354.800 1.870391
354.900 1.865830
355.000 1.859369
355.100 1.858229
355.200 1.864310
355.300 1.866211
355.400 1.857089
355.500 1.849867
355.600 1.847206
355.700 1.852147
355.800 1.854048
355.900 1.848727
356.000 1.839605
356.100 1.845686
356.200 1.852908
356.300 1.849867
356.400 1.837324
356.500 1.828962
356.600 1.829723
356.700 1.825162
356.800 1.832763
356.900 1.827442
357.000 1.807678
357.100 1.766249
357.200 1.745344
357.300 1.743824
357.400 1.743444
357.500 1.745724
357.600 1.755986
357.700 1.754086
357.800 1.747624
357.900 1.742683
358.000 1.745724
358.100 1.751805
358.200 1.749525
358.300 1.743444
358.400 1.740403
358.500 1.734702
358.600 1.728240
358.700 1.723299
358.800 1.716458
358.900 1.722919
359.000 1.735462
359.100 1.736602
359.200 1.730141
359.300 1.729761
359.400 1.732801
359.500 1.735842
359.600 1.735082
359.700 1.739263
359.800 1.745344
359.900 1.748765
360.000 1.754086
360.100 1.751425
360.200 1.755986
360.300 1.750665
360.400 1.744204
360.500 1.741543
360.600 1.743444
360.700 1.746104
360.800 1.751805
360.900 1.758267
361.000 1.762068
361.100 1.753706
361.200 1.749525
361.300 1.743444
361.400 1.737362
361.500 1.734702
361.600 1.743063
361.700 1.750285
361.800 1.760927
361.900 1.770810
362.000 1.762828
362.100 1.761688
362.200 1.776131
362.300 1.779932
362.400 1.773850
362.500 1.774230
362.600 1.782592
362.700 1.790954
362.800 1.789054
362.900 1.778411
363.000 1.773850
363.100 1.771570
363.200 1.769289
363.300 1.771190
363.400 1.786013
363.500 1.781452
363.600 1.746104
363.700 1.730901
363.800 1.733561
363.900 1.737362
364.000 1.740023
364.100 1.742683
364.200 1.746104
364.300 1.740023
364.400 1.729761
364.500 1.729000
364.600 1.721779
364.700 1.722159
364.800 1.725580
364.900 1.725960
365.000 1.727480
365.100 1.724819
365.200 1.723299
365.300 1.722539
365.400 1.721779
365.500 1.721399
365.600 1.725580
365.700 1.723299
365.800 1.718358
365.900 1.713417
366.000 1.703535
366.100 1.703155
366.200 1.700114
366.300 1.706575
366.400 1.709236
366.500 1.703535
366.600 1.701254
366.700 1.694793
366.800 1.692132
366.900 1.697834
367.000 1.703535
367.100 1.703155
367.200 1.700114
367.300 1.691372
367.400 1.686051
367.500 1.675789
367.600 1.675029
367.700 1.670848
367.800 1.667047
367.900 1.668567
368.000 1.672748
368.100 1.683010
368.200 1.679209
368.300 1.675789
368.400 1.676549
368.500 1.668567
368.600 1.653364
368.700 1.653364
368.800 1.677309
368.900 1.707716
369.000 1.702014
369.100 1.666667
369.200 1.668947
369.300 1.695173
369.400 1.722919
369.500 1.716838
369.600 1.671228
369.700 1.649183
369.800 1.653364
369.900 1.708096
370.000 1.765488
370.100 1.771190
370.200 1.718358
370.300 1.616496
370.400 1.569365
370.500 1.568605
370.600 1.641201
370.700 1.712657
370.800 1.772710
370.900 1.745724
371.000 1.668567
371.100 1.585329
371.200 1.539719
371.300 1.567085
371.400 1.644622
371.500 1.770049
371.600 1.840365
371.700 1.878373
371.800 1.866971
371.900 1.787913
372.000 1.640821
372.100 1.556062
372.200 1.503231
372.300 1.548461
372.400 1.645002
372.500 1.772330
372.600 1.831243
372.700 1.901178
372.800 1.929685
372.900 1.936906
373.000 1.911060
373.100 1.833523
373.200 1.694033
373.300 1.573546
373.400 1.469023
373.500 1.455720
373.600 1.524515
373.700 1.668947
373.800 1.780692
373.900 1.914101
374.000 1.979856
374.100 2.023565
374.200 2.033827
374.300 2.019764
374.400 1.993539
374.500 1.948689
374.600 1.867351
374.700 1.752185
374.800 1.625238
374.900 1.467123
375.000 1.419992
375.100 1.449259
375.200 1.559103
375.300 1.676549
375.400 1.812619
375.500 1.884835
375.600 1.956670
375.700 1.973774
375.800 1.974154
375.900 1.961612
376.000 1.949069
376.100 1.946028
376.200 1.979475
376.300 1.986697
376.400 1.967693
376.500 1.919802
376.600 1.845686
376.700 1.766629
376.800 1.638540
376.900 1.494869
377.000 1.387685
377.100 1.348157
377.200 1.433675
377.300 1.579247
377.400 1.702014
377.500 1.812999
377.600 1.897377
377.700 1.955910
377.800 2.013303
377.900 2.044090
378.000 2.077157
378.100 2.093501
378.200 2.104903
378.300 2.100342
378.400 2.097301
378.500 2.101862
378.600 2.096161
378.700 2.085139
378.800 2.072976
378.900 2.052071
379.000 2.019764
379.100 1.982136
379.200 1.927784
379.300 1.862790
379.400 1.781832
379.500 1.643862
379.600 1.505891
379.700 1.363360
379.800 1.297605
379.900 1.349297
380.000 1.501330
380.100 1.636640
380.200 1.773090
380.300 1.854428
380.400 1.922083
380.500 1.975295
380.600 2.000380
380.700 2.030027
380.800 2.056252
380.900 2.085519
381.000 2.110224
381.100 2.123527
381.200 2.114405
381.300 2.095401
381.400 2.079437
381.500 2.077537
381.600 2.074876
381.700 2.066515
381.800 2.041809
381.900 2.005321
382.000 1.983656
382.100 1.988597
382.200 2.027366
382.300 2.037628
382.400 2.025846
382.500 2.002661
382.600 1.970353
382.700 1.951349
382.800 1.919802
382.900 1.870391
383.000 1.815659
383.100 1.732421
383.200 1.635500
383.300 1.500950
383.400 1.327252
383.500 1.251995
383.600 1.248195
383.700 1.345496
383.800 1.480046
383.900 1.624857
384.000 1.722919
384.100 1.822501
384.200 1.882174
384.300 1.945268
384.400 1.984036
384.500 2.016344
384.600 2.036488
384.700 2.049031
384.800 2.055492
384.900 2.058533
385.000 2.064994
385.100 2.083998
385.200 2.095021
385.300 2.090840
385.400 2.074876
385.500 2.059293
385.600 2.049031
385.700 2.055492
385.800 2.076777
385.900 2.095401
386.000 2.105283
386.100 2.099962
386.200 2.074116
386.300 2.029647
386.400 2.026606
386.500 2.033827
386.600 2.038008
386.700 2.049031
386.800 2.056632
386.900 2.057393
387.000 2.050171
387.100 2.032687
387.200 2.012543
387.300 2.008742
387.400 2.017864
387.500 2.027746
387.600 2.017864
387.700 1.996579
387.800 1.980616
387.900 1.966173
388.000 1.954010
388.100 1.922463
388.200 1.872672
388.300 1.826302
388.400 1.765488
388.500 1.674648
388.600 1.557583
388.700 1.389586
388.800 1.253896
388.900 1.189662
389.000 1.242113
389.100 1.377043
389.200 1.548461
389.300 1.663626
389.400 1.760547
389.500 1.821361
389.600 1.874192
389.700 1.920182
389.800 1.943368
389.900 1.959331
390.000 1.969593
390.100 1.992778
390.200 2.020144
390.300 2.036868
390.400 2.042189
390.500 2.036488
390.600 2.031167
390.700 2.042949
390.800 2.068795
390.900 2.090080
391.000 2.093501
391.100 2.096161
391.200 2.088940
391.300 2.072976
391.400 2.060813
391.500 2.064614
391.600 2.076017
391.700 2.080958
391.800 2.076397
391.900 2.061954
392.000 2.058913
392.100 2.059673
392.200 2.053212
392.300 2.037628
392.400 2.031167
392.500 2.037628
392.600 2.033447
392.700 2.036868
392.800 2.031927
392.900 2.023565
393.000 2.011403
393.100 1.966553
393.200 1.855948
393.300 1.712277
393.400 1.705055
393.500 1.807678
393.600 1.924743
393.700 1.986697
393.800 2.020144
393.900 2.038008
394.000 2.056252
394.100 2.068415
394.200 2.068415
394.300 2.051311
394.400 2.034208
394.500 2.016724
394.600 2.007982
394.700 2.011403
394.800 2.015583
394.900 2.012923
395.000 2.005701
395.100 1.994679
395.200 1.985177
395.300 1.982136
395.400 1.980616
395.500 1.967693
395.600 1.950589
395.700 1.936146
395.800 1.930065
395.900 1.920182
396.000 1.894717
396.100 1.865070
396.200 1.822881
396.300 1.780692
396.400 1.721019
396.500 1.644242
396.600 1.540099
396.700 1.354238
396.800 1.167997
396.900 1.050171
397.000 1.032687
397.100 1.120867
397.200 1.276701
397.300 1.418092
397.400 1.551121
397.500 1.644622
397.600 1.714557
397.700 1.771190
397.800 1.797415
397.900 1.836564
398.000 1.860129
398.100 1.882554
398.200 1.896617
398.300 1.905739
398.400 1.921323
398.500 1.934626
398.600 1.935766
398.700 1.924363
398.800 1.952490
398.900 1.961612
399.000 1.970353
399.100 1.975675
399.200 1.975675
399.300 1.976815
399.400 1.973774
399.500 1.977575
399.600 1.973014
399.700 1.971114
399.800 1.973014
399.900 1.977195
400.000 1.964272
400.100 1.949829
400.200 1.946028
400.300 1.941847
400.400 1.943748
400.500 1.947168
400.600 1.950969
400.700 1.950589
400.800 1.947929
400.900 1.939187
401.000 1.936906
401.100 1.945648
401.200 1.955150
401.300 1.961231
401.400 1.963132
401.500 1.965792
401.600 1.973774
401.700 1.984417
401.800 1.992018
401.900 1.995819
402.000 1.992778
402.100 1.984417
402.200 1.972634
402.300 1.940327
402.400 1.893197
402.500 1.850627
402.600 1.839225
402.700 1.864310
402.800 1.908400
402.900 1.939947
403.000 1.965032
403.100 1.971494
403.200 1.974534
403.300 1.972634
403.400 1.973014
403.500 1.979856
403.600 1.984797
403.700 1.985557
403.800 1.986317
403.900 1.984036
404.000 1.986697
404.100 1.989738
404.200 1.983656
404.300 1.975295
404.400 1.963892
404.500 1.951729
404.600 1.946788
404.700 1.955530
404.800 1.965792
404.900 1.973394
405.000 1.974154
405.100 1.971874
405.200 1.969973
405.300 1.960851
405.400 1.958951
405.500 1.966173
405.600 1.968073
405.700 1.969213
405.800 1.969593
405.900 1.970734
406.000 1.969973
406.100 1.958951
406.200 1.946788
406.300 1.938046
406.400 1.914861
406.500 1.862790
406.600 1.863930
406.700 1.875333
406.800 1.874952
406.900 1.871912
407.000 1.862410
407.100 1.852147
407.200 1.849487
407.300 1.847206
407.400 1.851387
407.500 1.848727
407.600 1.836184
407.700 1.826682
407.800 1.824781
407.900 1.837324
408.000 1.849107
408.100 1.854048
408.200 1.851387
408.300 1.843406
408.400 1.829723
408.500 1.820220
408.600 1.809578
408.700 1.809198
408.800 1.803497
408.900 1.796655
409.000 1.779932
409.100 1.767009
409.200 1.752566
409.300 1.723679
409.400 1.690992
409.500 1.639301
409.600 1.583048
409.700 1.521095
409.800 1.426834
409.900 1.316990
410.000 1.180540
410.100 1.062334
410.200 1.035728
410.300 1.112505
410.400 1.250095
410.500 1.393767
410.600 1.488407
410.700 1.556823
410.800 1.610414
410.900 1.642341
411.000 1.674268
411.100 1.698974
411.200 1.724439
411.300 1.742303
411.400 1.760927
411.500 1.776891
411.600 1.789434
411.700 1.789814
411.800 1.780692
411.900 1.774990
412.000 1.770049
412.100 1.772330
412.200 1.778411
412.300 1.789434
412.400 1.801216
412.500 1.812239
412.600 1.801976
412.700 1.781452
412.800 1.764728
412.900 1.756366
413.000 1.757507
413.100 1.767769
413.200 1.778791
413.300 1.792474
413.400 1.811479
413.500 1.819840
413.600 1.824021
413.700 1.824021
413.800 1.829342
413.900 1.832003
414.000 1.832383
414.100 1.825922
414.200 1.806918
414.300 1.789054
414.400 1.778411
414.500 1.789434
