# Wavelength (nm)   F_lamA (normalized erg/cm2/s/A)9.100 0.000029
9.400 0.000051
9.600 0.000073
9.800 0.000103
10.000 0.000142
10.200 0.000194
10.400 0.000261
10.600 0.000347
10.800 0.000455
11.000 0.000592
11.400 0.000971
11.800 0.001538
12.100 0.002122
12.500 0.003182
12.700 0.003856
12.800 0.004235
13.100 0.005560
13.200 0.006069
13.400 0.007205
13.700 0.009226
14.000 0.011683
14.300 0.014640
14.700 0.019492
15.100 0.025520
15.500 0.032956
15.900 0.041983
16.200 0.049908
16.600 0.062240
17.000 0.076744
17.300 0.089198
17.700 0.108094
18.000 0.124082
18.200 0.135664
18.600 0.161108
19.100 0.197674
19.400 0.222154
19.800 0.258109
20.200 0.297889
20.500 0.330171
21.000 0.389229
21.600 0.468788
22.000 0.527081
22.300 0.573592
22.700 0.639688
23.000 15.804774
23.400 17.701958
24.000 22.781518
24.600 30.813953
25.200 38.800490
25.700 30.859853
26.000 43.084455
26.400 54.391065
26.900 56.089351
27.400 57.236842
27.900 53.641371
28.400 58.965728
29.000 58.935129
29.600 53.274174
30.100 34.807222
30.800 42.992656
31.800 55.263158
32.800 55.431457
33.800 53.901469
34.800 52.555080
35.700 54.207466
36.600 56.548348
37.500 55.462056
38.500 51.376989
39.500 54.023868
40.500 54.880661
41.400 54.222766
42.200 52.585679
43.000 51.361689
44.100 52.233782
45.100 51.575887
46.000 49.785802
47.000 48.944308
48.000 48.867809
49.000 46.924725
50.000 47.399021
50.600 51.223990
51.200 63.846389
52.000 62.148103
53.000 60.495716
54.000 56.395349
55.000 55.507956
56.000 58.782130
57.000 58.231334
58.000 56.227050
59.000 56.119951
60.000 53.977968
61.000 52.402081
62.000 53.993268
63.000 52.631579
64.000 52.386781
65.000 51.070991
65.800 49.571603
66.500 50.030600
67.500 49.724602
68.500 47.475520
69.500 47.995716
70.500 45.608935
71.600 46.618727
72.600 46.006732
73.500 45.455936
74.500 44.369645
75.500 43.528152
76.500 42.212362
77.500 42.044064
78.500 41.279070
79.500 40.758874
80.500 40.253978
81.500 39.764382
82.500 39.274786
83.500 37.117503
84.500 37.958996
85.500 37.255202
86.500 36.964504
87.500 36.429009
88.500 35.832313
89.500 35.266218
90.500 34.455324
91.500 35.082619
92.500 59.960220
93.500 79.513464
94.500 103.014076
95.500 109.516524
96.500 121.940024
97.500 83.935129
98.500 116.661567
99.500 108.812729
100.500 112.867197
101.500 109.485924
102.500 80.064259
103.500 102.906977
104.500 107.435741
105.500 104.911261
106.500 99.495104
107.500 98.974908
108.500 92.151163
109.500 95.853733
110.500 92.564259
111.500 90.636475
112.500 86.337209
113.500 87.194002
114.500 84.501224
115.500 82.726438
116.500 81.074051
117.500 72.322521
118.500 76.713586
119.500 74.296206
120.500 70.517136
121.500 53.182375
122.500 68.206854
123.500 68.956548
124.500 67.656059
125.500 66.845165
126.500 65.529376
127.500 64.611383
128.500 63.372093
129.500 60.954712
130.500 59.960220
131.500 59.593023
132.500 57.971236
133.500 56.456548
134.500 55.936353
135.500 54.788862
136.500 53.365973
137.500 52.172583
138.500 51.346389
139.500 47.567319
140.500 45.761934
141.500 48.393513
142.500 47.001224
143.500 46.542228
144.200 45.914933
144.700 45.440636
145.500 44.599143
146.500 43.757650
147.500 42.946756
148.500 42.288862
149.500 41.386169
150.500 40.529376
151.200 39.871481
151.700 39.534884
152.500 38.892289
153.500 37.347001
154.500 35.526316
155.500 35.052020
156.500 35.403917
157.500 35.174419
158.500 34.715422
159.500 34.134027
160.500 32.971236
161.500 32.343941
162.500 31.839045
163.500 31.196450
164.500 29.926561
165.500 30.584455
166.500 30.140759
167.200 29.406365
167.700 29.788862
168.500 29.314565
169.500 28.748470
170.500 28.151775
171.500 27.371481
172.500 26.988984
173.500 26.881885
174.500 26.361689
175.500 25.917993
176.500 25.428397
177.500 25.076499
178.500 24.739902
179.500 24.326805
180.500 24.005508
181.500 23.500612
182.500 23.148715
183.500 22.812118
184.500 22.215422
185.500 21.787026
186.500 21.542228
187.500 21.312729
188.500 20.731334
189.500 20.302938
190.500 20.241738
191.500 19.767442
192.500 19.339045
193.500 19.262546
194.500 19.078947
195.500 18.528152
196.700 18.421053
197.600 18.268054
198.400 17.916157
199.500 17.518360
200.500 17.395961
201.500 17.181763
202.500 16.982864
203.500 16.630967
204.500 16.386169
205.500 14.003978
206.500 14.634333
207.400 15.820073
207.800 15.682375
208.500 15.575275
209.500 15.315177
210.500 15.166769
211.500 15.032130
212.500 14.837821
213.500 14.602203
214.500 14.352815
215.500 14.268666
216.500 13.941248
217.500 13.850979
218.500 13.557222
219.500 13.491432
220.500 13.287944
221.500 12.983476
222.500 12.894737
223.500 12.732558
224.500 12.558140
225.500 12.249082
226.500 12.209302
227.500 12.047124
228.500 11.881885
229.500 11.609547
230.500 11.429009
231.500 11.387699
232.500 10.970012
233.500 11.066401
234.500 10.905753
235.500 10.787944
236.500 10.624235
237.500 10.492656
238.500 10.194308
239.500 10.203488
240.500 10.071909
241.500 9.940330
242.500 9.831701
243.500 9.689412
244.500 9.573133
245.500 9.450734
246.500 9.323745
247.500 9.204406
248.500 9.092717
249.500 8.734700
250.500 8.852509
251.300 8.457772
251.800 8.688800
252.500 8.623011
253.500 8.512852
254.500 8.399633
255.500 8.317013
256.500 8.211444
257.500 8.121175
258.500 8.021726
259.500 7.916157
260.500 7.819767
261.500 7.720318
262.500 7.634639
263.500 7.542840
264.500 7.480110
265.500 7.389841
266.500 7.287332
267.500 7.203182
268.500 7.137393
269.500 7.022644
270.500 6.964504
271.500 6.875765
272.500 6.770196
273.500 6.623317
274.500 6.617197
275.500 6.543758
276.500 6.453488
277.500 6.415239
278.500 6.335679
279.500 6.214810
280.500 6.168911
281.500 6.127601
282.500 6.034272
283.500 5.968482
284.500 5.916463
285.500 5.849143
286.500 5.789474
287.500 5.723684
288.500 5.660955
289.500 5.596695
291.000 5.509486
293.000 5.385557
295.000 5.249388
297.000 5.156059
299.000 5.042840
301.000 4.918911
303.000 4.796512
305.000 4.677173
307.000 4.563953
309.000 4.452264
311.000 4.345165
313.000 4.238066
315.000 4.140147
317.000 4.042228
319.000 3.925949
321.000 3.829559
323.000 3.765300
325.000 3.681151
327.000 3.598531
329.000 3.517442
331.000 3.442472
332.200 3.431763
332.300 3.445532
332.400 3.428703
332.500 3.414933
332.600 3.398103
332.700 3.385863
332.800 3.372093
332.900 3.369033
333.000 3.364443
333.100 3.361383
333.200 3.350673
333.300 3.327723
333.400 3.310894
333.500 3.291004
333.600 3.274174
333.700 3.271114
333.800 3.266524
333.900 3.257344
334.000 3.235924
334.100 3.243574
334.200 3.263464
334.300 3.324663
334.400 3.361383
334.500 3.391983
334.600 3.414933
334.700 3.422583
334.800 3.381273
334.900 3.310894
335.000 3.186965
335.100 3.165545
335.200 3.188494
335.300 3.196144
335.400 3.188494
335.500 3.174725
335.600 3.177785
335.700 3.188494
335.800 3.203794
335.900 3.214504
336.000 3.214504
336.100 3.206854
336.200 3.211444
336.300 3.203794
336.400 3.200734
336.500 3.168605
336.600 3.141065
336.700 3.116585
336.800 3.110465
336.900 3.121175
337.000 3.142595
337.100 3.139535
337.200 3.105875
337.300 3.099755
337.400 3.111995
337.500 3.141065
337.600 3.153305
337.700 3.128825
337.800 3.125765
337.900 3.134945
338.000 3.167075
338.100 3.194614
338.200 3.194614
338.300 3.180845
338.400 3.167075
338.500 3.188494
338.600 3.217564
338.700 3.234394
338.800 3.228274
338.900 3.197674
339.000 3.191554
339.100 3.190024
339.200 3.212974
339.300 3.229804
339.400 3.268054
339.500 3.264994
339.600 3.235924
339.700 3.199204
339.800 3.167075
339.900 3.096695
340.000 3.053856
340.100 3.055386
340.200 3.041616
340.300 3.029376
340.400 3.041616
340.500 3.052326
340.600 3.049266
340.700 3.055386
340.800 3.066095
340.900 3.072215
341.000 3.073745
341.100 3.038556
341.200 3.038556
341.300 3.063035
341.400 3.090575
341.500 3.107405
341.600 3.102815
341.700 3.098225
341.800 3.102815
341.900 3.110465
342.000 3.105875
342.100 3.107405
342.200 3.102815
342.300 3.111995
342.400 3.111995
342.500 3.101285
342.600 3.101285
342.700 3.102815
342.800 3.124235
342.900 3.128825
343.000 3.107405
343.100 3.098225
343.200 3.084455
343.300 3.084455
343.400 3.087515
343.500 3.107405
343.600 3.113525
343.700 3.105875
343.800 3.082925
343.900 3.059976
344.000 3.017136
344.100 3.003366
344.200 3.007956
344.300 3.032436
344.400 3.050796
344.500 3.023256
344.600 3.007956
344.700 2.998776
344.800 3.018666
344.900 3.041616
345.000 2.981946
345.100 2.936047
345.200 2.917687
345.300 2.919217
345.400 2.932987
345.500 2.932987
345.600 2.932987
345.700 2.928397
345.800 2.920747
345.900 2.911567
346.000 2.903917
346.100 2.903917
346.200 2.923807
346.300 3.007956
346.400 2.965116
346.500 2.954406
346.600 2.965116
346.700 2.962056
346.800 2.951346
346.900 2.954406
347.000 2.960526
347.100 2.919217
347.200 2.911567
347.300 2.945226
347.400 2.943696
347.500 2.929927
347.600 2.902387
347.700 2.847307
347.800 2.795288
347.900 2.784578
348.000 2.813647
348.100 2.853427
348.200 2.841187
348.300 2.810588
348.400 2.821297
348.500 2.876377
348.600 2.891677
348.700 2.903917
348.800 2.940636
348.900 2.952876
349.000 2.936047
349.100 2.928397
349.200 2.951346
349.300 2.945226
349.400 2.937576
349.500 2.920747
349.600 2.887087
349.700 2.890147
349.800 2.910037
349.900 2.917687
350.000 2.884027
350.100 2.824357
350.200 2.827417
350.300 2.841187
350.400 2.822827
350.500 2.790698
350.600 2.779988
350.700 2.792228
350.800 2.805998
350.900 2.805998
351.000 2.804468
351.100 2.804468
351.200 2.793758
351.300 2.778458
351.400 2.789168
351.500 2.798348
351.600 2.816707
351.700 2.799878
351.800 2.798348
351.900 2.810588
352.000 2.813647
352.100 2.810588
352.200 2.801408
352.300 2.798348
352.400 2.821297
352.500 2.787638
352.600 2.781518
352.700 2.784578
352.800 2.795288
352.900 2.813647
353.000 2.818237
353.100 2.825887
353.200 2.838127
353.300 2.822827
353.400 2.792228
353.500 2.787638
353.600 2.793758
353.700 2.770808
353.800 2.767748
353.900 2.770808
354.000 2.793758
354.100 2.809058
354.200 2.804468
354.300 2.792228
354.400 2.796818
354.500 2.802938
354.600 2.786108
354.700 2.790698
354.800 2.802938
354.900 2.807528
355.000 2.787638
355.100 2.772338
355.200 2.778458
355.300 2.790698
355.400 2.792228
355.500 2.779988
355.600 2.764688
355.700 2.772338
355.800 2.779988
355.900 2.778458
356.000 2.769278
356.100 2.779988
356.200 2.793758
356.300 2.784578
356.400 2.767748
356.500 2.773868
356.600 2.784578
356.700 2.757038
356.800 2.761628
356.900 2.749388
357.000 2.715728
357.100 2.652999
357.200 2.636169
357.300 2.642289
357.400 2.633109
357.500 2.633109
357.600 2.645349
357.700 2.645349
357.800 2.639229
357.900 2.626989
358.000 2.636169
358.100 2.648409
358.200 2.646879
358.300 2.640759
358.400 2.633109
358.500 2.625459
358.600 2.616279
358.700 2.607099
358.800 2.597919
358.900 2.596389
359.000 2.619339
359.100 2.631579
359.200 2.622399
359.300 2.620869
359.400 2.622399
359.500 2.616279
359.600 2.608629
359.700 2.610159
359.800 2.610159
359.900 2.617809
360.000 2.640759
360.100 2.637699
360.200 2.645349
360.300 2.631579
360.400 2.617809
360.500 2.617809
360.600 2.619339
360.700 2.619339
360.800 2.630049
360.900 2.640759
361.000 2.636169
361.100 2.604039
361.200 2.600979
361.300 2.593329
361.400 2.578029
361.500 2.579559
361.600 2.602509
361.700 2.619339
361.800 2.631579
361.900 2.636169
362.000 2.613219
362.100 2.608629
362.200 2.630049
362.300 2.630049
362.400 2.617809
362.500 2.617809
362.600 2.634639
362.700 2.640759
362.800 2.625459
362.900 2.613219
363.000 2.625459
363.100 2.634639
363.200 2.622399
363.300 2.604039
363.400 2.619339
363.500 2.614749
363.600 2.562729
363.700 2.539780
363.800 2.544370
363.900 2.545900
364.000 2.555080
364.100 2.571909
364.200 2.576499
364.300 2.553550
364.400 2.524480
364.500 2.522950
364.600 2.529070
364.700 2.535190
364.800 2.542840
364.900 2.550490
365.000 2.548960
365.100 2.535190
365.200 2.529070
365.300 2.524480
365.400 2.518360
365.500 2.522950
365.600 2.526010
365.700 2.518360
365.800 2.513770
365.900 2.507650
366.000 2.496940
366.100 2.489290
366.200 2.486230
366.300 2.496940
366.400 2.504590
366.500 2.495410
366.600 2.487760
366.700 2.475520
366.800 2.470930
366.900 2.477050
367.000 2.481640
367.100 2.477050
367.200 2.470930
367.300 2.464810
367.400 2.463280
367.500 2.460220
367.600 2.470930
367.700 2.452570
367.800 2.443390
367.900 2.443390
368.000 2.449510
368.100 2.460220
368.200 2.461750
368.300 2.454100
368.400 2.443390
368.500 2.434211
368.600 2.425031
368.700 2.428091
368.800 2.446450
368.900 2.472460
369.000 2.466340
369.100 2.435741
369.200 2.443390
369.300 2.460220
369.400 2.460220
369.500 2.447980
369.600 2.417381
369.700 2.395961
369.800 2.399021
369.900 2.447980
370.000 2.501530
370.100 2.493880
370.200 2.428091
370.300 2.333231
370.400 2.291922
370.500 2.290392
370.600 2.357711
370.700 2.423501
370.800 2.467870
370.900 2.440330
371.000 2.369951
371.100 2.296512
371.200 2.253672
371.300 2.278152
371.400 2.354651
371.500 2.467870
371.600 2.518360
371.700 2.533660
371.800 2.522950
371.900 2.437271
372.000 2.294982
372.100 2.223072
372.200 2.192472
372.300 2.242962
372.400 2.320991
372.500 2.412791
372.600 2.454100
372.700 2.507650
372.800 2.532130
372.900 2.538250
373.000 2.522950
373.100 2.458690
373.200 2.339351
373.300 2.224602
373.400 2.129743
373.500 2.119033
373.600 2.183293
373.700 2.316401
373.800 2.412791
373.900 2.522950
374.000 2.576499
374.100 2.605569
374.200 2.599449
374.300 2.571909
374.400 2.552020
374.500 2.524480
374.600 2.455630
374.700 2.345471
374.800 2.224602
374.900 2.074663
375.000 2.041004
375.100 2.086903
375.200 2.194002
375.300 2.287332
375.400 2.392901
375.500 2.452570
375.600 2.501530
375.700 2.501530
375.800 2.489290
375.900 2.473990
376.000 2.455630
376.100 2.441860
376.200 2.493880
376.300 2.518360
376.400 2.501530
376.500 2.458690
376.600 2.388311
376.700 2.311812
376.800 2.195532
376.900 2.063953
377.000 1.959914
377.100 1.935435
377.200 2.027234
377.300 2.171053
377.400 2.284272
377.500 2.373011
377.600 2.429621
377.700 2.463280
377.800 2.495410
377.900 2.507650
378.000 2.522950
378.100 2.533660
378.200 2.539780
378.300 2.526010
378.400 2.516830
378.500 2.532130
378.600 2.535190
378.700 2.521420
378.800 2.507650
378.900 2.493880
379.000 2.469400
379.100 2.443390
379.200 2.415851
379.300 2.373011
379.400 2.296512
379.500 2.172583
379.600 2.030294
379.700 1.891065
379.800 1.835985
379.900 1.901775
380.000 2.071603
380.100 2.204712
380.200 2.310282
380.300 2.368421
380.400 2.406671
380.500 2.441860
380.600 2.432681
380.700 2.444920
380.800 2.469400
380.900 2.492350
381.000 2.515300
381.100 2.524480
381.200 2.509180
381.300 2.490820
381.400 2.478580
381.500 2.472460
381.600 2.461750
381.700 2.446450
381.800 2.412791
381.900 2.373011
382.000 2.354651
382.100 2.362301
382.200 2.418911
382.300 2.444920
382.400 2.440330
382.500 2.421971
382.600 2.395961
382.700 2.399021
382.800 2.391371
382.900 2.350061
383.000 2.298042
383.100 2.226132
383.200 2.129743
383.300 1.996634
383.400 1.822215
383.500 1.741126
383.600 1.748776
383.700 1.871175
383.800 2.011934
383.900 2.152693
384.000 2.229192
384.100 2.296512
384.200 2.339351
384.300 2.388311
384.400 2.431151
384.500 2.460220
384.600 2.452570
384.700 2.451040
384.800 2.444920
384.900 2.451040
385.000 2.447980
385.100 2.461750
385.200 2.472460
385.300 2.464810
385.400 2.443390
385.500 2.421971
385.600 2.405141
385.700 2.402081
385.800 2.418911
385.900 2.449510
386.000 2.463280
386.100 2.466340
386.200 2.438800
386.300 2.392901
386.400 2.385251
386.500 2.383721
386.600 2.380661
386.700 2.392901
386.800 2.403611
386.900 2.402081
387.000 2.386781
387.100 2.363831
387.200 2.347001
387.300 2.351591
387.400 2.368421
387.500 2.383721
387.600 2.376071
387.700 2.359241
387.800 2.353121
387.900 2.356181
388.000 2.362301
388.100 2.339351
388.200 2.299572
388.300 2.261322
388.400 2.218482
388.500 2.135863
388.600 2.014994
388.700 1.837515
388.800 1.687576
388.900 1.624847
389.000 1.713586
389.100 1.883415
389.200 2.057834
389.300 2.163403
389.400 2.236842
389.500 2.279682
389.600 2.310282
389.700 2.334761
389.800 2.347001
389.900 2.353121
390.000 2.360771
390.100 2.376071
390.200 2.391371
390.300 2.402081
390.400 2.406671
390.500 2.402081
390.600 2.388311
390.700 2.395961
390.800 2.423501
390.900 2.434211
391.000 2.420441
391.100 2.420441
391.200 2.420441
391.300 2.399021
391.400 2.392901
391.500 2.405141
391.600 2.411261
391.700 2.408201
391.800 2.394431
391.900 2.365361
392.000 2.356181
392.100 2.353121
392.200 2.339351
392.300 2.313341
392.400 2.307222
392.500 2.317931
392.600 2.313341
392.700 2.320991
392.800 2.325581
392.900 2.328641
393.000 2.319461
393.100 2.261322
393.200 2.089963
393.300 1.842105
393.400 1.866585
393.500 2.086903
393.600 2.239902
393.700 2.302632
393.800 2.330171
393.900 2.342411
394.000 2.359241
394.100 2.368421
394.200 2.366891
394.300 2.348531
394.400 2.337821
394.500 2.313341
394.600 2.302632
394.700 2.307222
394.800 2.310282
394.900 2.308752
395.000 2.307222
395.100 2.299572
395.200 2.291922
395.300 2.287332
395.400 2.282742
395.500 2.270502
395.600 2.258262
395.700 2.246022
395.800 2.242962
395.900 2.246022
396.000 2.241432
396.100 2.227662
396.200 2.195532
396.300 2.146573
396.400 2.086903
396.500 2.021114
396.600 1.918605
396.700 1.684517
396.800 1.433752
396.900 1.337974
397.000 1.385557
397.100 1.519890
397.200 1.701346
397.300 1.846695
397.400 1.961444
397.500 2.042534
397.600 2.102203
397.700 2.134333
397.800 2.146573
397.900 2.175643
398.000 2.189412
398.100 2.200122
398.200 2.200122
398.300 2.195532
398.400 2.203182
398.500 2.215422
398.600 2.184823
398.700 2.135863
398.800 2.201652
398.900 2.224602
399.000 2.239902
399.100 2.250612
399.200 2.252142
399.300 2.246022
399.400 2.226132
399.500 2.223072
399.600 2.215422
399.700 2.216952
399.800 2.224602
399.900 2.233782
400.000 2.216952
400.100 2.203182
400.200 2.203182
400.300 2.200122
400.400 2.200122
400.500 2.201652
400.600 2.200122
400.700 2.194002
400.800 2.190942
400.900 2.178703
401.000 2.174113
401.100 2.190942
401.200 2.200122
401.300 2.209302
401.400 2.215422
401.500 2.216952
401.600 2.218482
401.700 2.226132
401.800 2.235312
401.900 2.242962
402.000 2.238372
402.100 2.223072
402.200 2.212362
402.300 2.174113
402.400 2.109853
402.500 2.042534
402.600 2.024174
402.700 2.060894
402.800 2.132803
402.900 2.174113
403.000 2.210832
403.100 2.215422
403.200 2.215422
403.300 2.212362
403.400 2.212362
403.500 2.216952
403.600 2.218482
403.700 2.216952
403.800 2.218482
403.900 2.212362
404.000 2.215422
404.100 2.223072
404.200 2.216952
404.300 2.207772
404.400 2.200122
404.500 2.190942
404.600 2.187882
404.700 2.203182
404.800 2.215422
404.900 2.216952
405.000 2.210832
405.100 2.209302
405.200 2.216952
405.300 2.207772
405.400 2.204712
405.500 2.212362
405.600 2.212362
405.700 2.213892
405.800 2.220012
405.900 2.221542
406.000 2.215422
406.100 2.194002
406.200 2.181763
406.300 2.183293
406.400 2.140453
406.500 2.042534
406.600 2.071603
406.700 2.112913
406.800 2.114443
406.900 2.102203
407.000 2.086903
407.100 2.080783
407.200 2.088433
407.300 2.083843
407.400 2.089963
407.500 2.085373
407.600 2.070073
407.700 2.059364
407.800 2.065483
407.900 2.086903
408.000 2.102203
408.100 2.106793
408.200 2.103733
408.300 2.099143
408.400 2.079253
408.500 2.073133
408.600 2.067013
408.700 2.076193
408.800 2.083843
408.900 2.080783
409.000 2.065483
409.100 2.053244
409.200 2.050184
409.300 2.028764
409.400 2.001224
409.500 1.958384
409.600 1.912485
409.700 1.861995
409.800 1.767136
409.900 1.652387
410.000 1.512699
410.100 1.389229
410.200 1.367350
410.300 1.466187
410.400 1.627907
410.500 1.782436
410.600 1.866585
410.700 1.914015
410.800 1.950734
410.900 1.967564
411.000 1.982864
411.100 1.999694
411.200 2.014994
411.300 2.027234
411.400 2.044064
411.500 2.062424
411.600 2.071603
411.700 2.060894
411.800 2.033354
411.900 2.016524
412.000 2.007344
412.100 2.013464
412.200 2.018054
412.300 2.031824
412.400 2.045594
412.500 2.054774
412.600 2.050184
412.700 2.030294
412.800 2.007344
412.900 2.004284
413.000 2.010404
413.100 2.019584
413.200 2.024174
413.300 2.030294
413.400 2.044064
413.500 2.056304
413.600 2.057834
413.700 2.056304
413.800 2.062424
413.900 2.062424
414.000 2.059364
414.100 2.054774
