# Wavelength (nm)   F_lamA (normalized erg/cm2/s/A)9.100 0.000518
9.400 0.000594
9.600 0.000648
9.800 0.000704
10.000 0.000763
10.200 0.000824
10.400 0.000888
10.600 0.000954
10.800 0.001023
11.000 0.001095
11.400 0.001248
11.800 0.001415
12.100 0.001552
12.500 0.001752
12.700 0.001861
12.800 0.001918
13.100 0.002102
13.200 0.002168
13.400 0.002306
13.700 0.002537
14.000 0.002797
14.300 0.003095
14.700 0.003560
15.100 0.004120
15.500 0.004796
15.900 0.005614
16.200 0.006335
16.600 0.007462
17.000 0.008806
17.300 0.009977
17.700 0.011777
18.000 0.013326
18.200 0.014466
18.600 0.017003
19.100 0.020705
19.400 0.023241
19.800 0.027012
20.200 0.031249
20.500 0.034759
21.000 0.041259
21.600 0.050171
22.000 0.056835
22.300 0.062224
22.700 0.069916
23.000 2.128068
23.400 2.339229
24.000 3.009735
24.600 4.105306
25.200 5.010284
25.700 3.880433
26.000 5.531331
26.400 6.976553
26.900 7.098588
27.400 7.206911
27.900 6.929933
28.400 7.289181
29.000 7.252160
29.600 6.668038
30.100 4.627725
30.800 5.745235
31.800 7.146579
32.800 7.163033
33.800 7.020431
34.800 6.891540
35.700 6.988893
36.600 7.069793
37.500 6.950500
38.500 6.580282
39.500 6.746195
40.500 6.754422
41.400 6.663924
42.200 6.495269
43.000 6.385575
44.100 6.392431
45.100 6.285479
46.000 6.112711
47.000 6.004388
48.000 5.949541
49.000 5.760318
50.000 5.745235
50.600 6.178527
51.200 7.316605
52.000 7.175374
53.000 7.045112
54.000 6.676265
55.000 6.593994
56.000 6.769505
57.000 6.680378
58.000 6.471959
59.000 6.441794
60.000 6.252571
61.000 6.075689
62.000 6.137392
63.000 6.005759
64.000 5.942685
65.000 5.808309
65.800 5.662964
66.500 5.672563
67.500 5.610860
68.500 5.407925
69.500 5.417524
70.500 5.209105
71.600 5.239271
72.600 5.161113
73.500 5.092555
74.500 4.982860
75.500 4.892363
76.500 4.768957
77.500 4.726450
78.500 4.644179
79.500 4.572878
80.500 4.513917
81.500 4.449472
82.500 4.391883
83.500 4.208145
84.500 4.245167
85.500 4.168381
86.500 4.125874
87.500 4.065542
88.500 4.001097
89.500 3.936652
90.500 3.850267
91.500 4.112162
92.500 7.139723
93.500 9.978061
94.500 14.630468
95.500 16.687234
96.500 19.429590
97.500 11.808584
98.500 20.540244
99.500 20.224873
100.500 20.883039
101.500 18.593172
102.500 10.803510
103.500 17.057452
104.500 19.978061
105.500 20.197450
106.500 19.265049
107.500 19.580420
108.500 18.305224
109.500 19.073084
110.500 18.428630
111.500 18.113259
112.500 17.249417
113.500 17.413959
114.500 16.742081
115.500 16.522693
116.500 16.207322
117.500 14.493350
118.500 14.986974
119.500 13.766626
120.500 12.082819
121.500 7.376937
122.500 11.530234
123.500 12.931578
124.500 13.215412
125.500 13.310023
126.500 13.035788
127.500 13.163307
128.500 13.061840
129.500 12.590155
130.500 12.365282
131.500 12.484574
132.500 12.181544
133.500 11.860688
134.500 11.892225
135.500 11.676951
136.500 11.412313
137.500 11.229947
138.500 11.096942
139.500 10.577266
140.500 10.378445
141.500 10.525161
142.500 10.330454
143.500 10.167284
144.200 10.095982
144.700 10.010969
145.500 9.866996
146.500 9.670917
147.500 9.524201
148.500 9.373372
149.500 9.204717
150.500 9.044289
151.200 8.916770
151.700 8.871521
152.500 8.712464
153.500 8.446456
154.500 8.295626
155.500 8.117373
156.500 8.037845
157.500 7.999452
158.500 7.922666
159.500 7.843137
160.500 7.600439
161.500 7.490745
162.500 7.345400
163.500 7.231592
164.500 7.031400
165.500 7.003976
166.500 7.023173
167.200 6.824352
167.700 6.884684
168.500 6.832579
169.500 6.696833
170.500 6.570684
171.500 6.452763
172.500 6.356780
173.500 6.340326
174.500 6.215549
175.500 6.164816
176.500 5.981078
177.500 5.982449
178.500 5.893322
179.500 5.841218
180.500 5.772659
181.500 5.673934
182.500 5.595777
183.500 5.517620
184.500 5.383244
185.500 5.285891
186.500 5.235157
187.500 5.213218
188.500 5.093926
189.500 4.996572
190.500 4.989716
191.500 4.881393
192.500 4.812834
193.500 4.771699
194.500 4.759358
195.500 4.642808
196.700 4.627725
197.600 4.583848
198.400 4.513917
199.500 4.415193
200.500 4.391883
201.500 4.337036
202.500 4.297271
203.500 4.239682
204.500 4.191691
205.500 3.883176
206.500 3.922940
207.400 4.065542
207.800 4.025778
208.500 4.010695
209.500 3.943507
210.500 3.914713
211.500 3.883176
212.500 3.843411
213.500 3.776224
214.500 3.744687
215.500 3.710407
216.500 3.634992
217.500 3.604827
218.500 3.563691
219.500 3.556835
220.500 3.495132
221.500 3.426573
222.500 3.392294
223.500 3.392294
224.500 3.338818
225.500 3.273002
226.500 3.245578
227.500 3.230495
228.500 3.203071
229.500 3.133141
230.500 3.112574
231.500 3.087892
232.500 2.908268
233.500 3.008364
234.500 2.934321
235.500 2.950775
236.500 2.882216
237.500 2.878102
238.500 2.788976
239.500 2.809543
240.500 2.772522
241.500 2.749212
242.500 2.747840
243.500 2.702592
244.500 2.688880
245.500 2.665570
246.500 2.625806
247.500 2.595640
248.500 2.580557
249.500 2.516111
250.500 2.547648
251.300 2.473605
251.800 2.492801
252.500 2.457151
253.500 2.426985
254.500 2.409159
255.500 2.416015
256.500 2.387221
257.500 2.384478
258.500 2.365282
259.500 2.337858
260.500 2.306321
261.500 2.277526
262.500 2.269299
263.500 2.255588
264.500 2.278898
265.500 2.259701
266.500 2.219937
267.500 2.213081
268.500 2.203483
269.500 2.165090
270.500 2.155492
271.500 2.121212
272.500 2.096531
273.500 2.088304
274.500 2.036199
275.500 2.027972
276.500 2.027972
277.500 2.034828
278.500 2.010147
279.500 1.903195
280.500 1.925134
281.500 1.979981
282.500 1.958042
283.500 1.937474
284.500 1.919649
285.500 1.890854
286.500 1.894968
287.500 1.879885
288.500 1.870287
289.500 1.857946
291.000 1.849719
293.000 1.814068
295.000 1.779789
297.000 1.761964
299.000 1.738654
301.000 1.713972
303.000 1.686549
305.000 1.660496
307.000 1.631702
309.000 1.608392
311.000 1.580968
313.000 1.556287
315.000 1.532977
317.000 1.512409
319.000 1.476759
321.000 1.463047
323.000 1.439737
325.000 1.426025
327.000 1.412313
329.000 1.393117
331.000 1.376663
332.200 1.317976
332.300 1.326889
332.400 1.322638
332.500 1.316742
332.600 1.303990
332.700 1.289181
332.800 1.295626
332.900 1.304813
333.000 1.314274
333.100 1.318525
333.200 1.312766
333.300 1.300288
333.400 1.287125
333.500 1.281914
333.600 1.269848
333.700 1.255725
333.800 1.253668
333.900 1.258193
334.000 1.258330
334.100 1.264774
334.200 1.265460
334.300 1.286713
334.400 1.306595
334.500 1.312766
334.600 1.317016
334.700 1.309612
334.800 1.285205
334.900 1.252022
335.000 1.219114
335.100 1.225010
335.200 1.243247
335.300 1.253394
335.400 1.253942
335.500 1.249006
335.600 1.249829
335.700 1.252708
335.800 1.245989
335.900 1.235020
336.000 1.229398
336.100 1.225422
336.200 1.237351
336.300 1.241053
336.400 1.242287
336.500 1.230495
336.600 1.217880
336.700 1.209653
336.800 1.203620
336.900 1.205402
337.000 1.213492
337.100 1.214178
337.200 1.201015
337.300 1.200740
337.400 1.210750
337.500 1.236254
337.600 1.252845
337.700 1.237214
337.800 1.220211
337.900 1.209653
338.000 1.216372
338.100 1.230906
338.200 1.245715
338.300 1.257781
338.400 1.256547
338.500 1.257507
338.600 1.253942
338.700 1.245304
338.800 1.240916
338.900 1.245441
339.000 1.253942
339.100 1.262032
339.200 1.259975
339.300 1.251611
339.400 1.260798
339.500 1.270671
339.600 1.278349
339.700 1.274373
339.800 1.268614
339.900 1.245578
340.000 1.225285
340.100 1.225833
340.200 1.212533
340.300 1.210064
340.400 1.210202
340.500 1.214178
340.600 1.204991
340.700 1.200603
340.800 1.208282
340.900 1.215961
341.000 1.221857
341.100 1.208419
341.200 1.210064
341.300 1.224736
341.400 1.238859
341.500 1.241876
341.600 1.238996
341.700 1.237077
341.800 1.243247
341.900 1.251611
342.000 1.254902
342.100 1.253805
342.200 1.244892
342.300 1.236528
342.400 1.232140
342.500 1.231866
342.600 1.237625
342.700 1.243933
342.800 1.251337
342.900 1.256547
343.000 1.247086
343.100 1.239956
343.200 1.234883
343.300 1.236940
343.400 1.243658
343.500 1.249006
343.600 1.251885
343.700 1.250103
343.800 1.247909
343.900 1.239133
344.000 1.222131
344.100 1.205814
344.200 1.199232
344.300 1.201700
344.400 1.206225
344.500 1.211024
344.600 1.222679
344.700 1.234471
344.800 1.250651
344.900 1.261895
345.000 1.233786
345.100 1.200055
345.200 1.181681
345.300 1.175237
345.400 1.186069
345.500 1.188537
345.600 1.184835
345.700 1.183464
345.800 1.179761
345.900 1.180995
346.000 1.178527
346.100 1.177019
346.200 1.182504
346.300 1.201152
346.400 1.193199
346.500 1.189634
346.600 1.192788
346.700 1.196216
346.800 1.198958
346.900 1.202523
347.000 1.209927
347.100 1.206499
347.200 1.199095
347.300 1.189085
347.400 1.184423
347.500 1.178939
347.600 1.178390
347.700 1.175099
347.800 1.169752
347.900 1.167969
348.000 1.177430
348.100 1.183464
348.200 1.174140
348.300 1.162622
348.400 1.162485
348.500 1.182504
348.600 1.201563
348.700 1.209379
348.800 1.211573
348.900 1.202797
349.000 1.192102
349.100 1.191828
349.200 1.201700
349.300 1.204305
349.400 1.198821
349.500 1.187577
349.600 1.179624
349.700 1.184286
349.800 1.190045
349.900 1.190731
350.000 1.174414
350.100 1.163033
350.200 1.167832
350.300 1.170986
350.400 1.165775
350.500 1.155629
350.600 1.150418
350.700 1.151927
350.800 1.156451
350.900 1.158097
351.000 1.161662
351.100 1.164678
351.200 1.163307
351.300 1.154669
351.400 1.149733
351.500 1.156314
351.600 1.166324
351.700 1.171123
351.800 1.173728
351.900 1.171123
352.000 1.168655
352.100 1.164541
352.200 1.159468
352.300 1.159331
352.400 1.161113
352.500 1.159057
352.600 1.162210
352.700 1.163719
352.800 1.168518
352.900 1.176471
353.000 1.185383
353.100 1.192102
353.200 1.196078
353.300 1.188126
353.400 1.175237
353.500 1.168929
353.600 1.169752
353.700 1.167284
353.800 1.167969
353.900 1.172357
354.000 1.177842
354.100 1.178527
354.200 1.179076
354.300 1.181955
354.400 1.185383
354.500 1.186480
354.600 1.186754
354.700 1.188400
354.800 1.191005
354.900 1.187166
355.000 1.184972
355.100 1.189634
355.200 1.191828
355.300 1.187714
355.400 1.178664
355.500 1.175237
355.600 1.178664
355.700 1.186754
355.800 1.188948
355.900 1.184698
356.000 1.179213
356.100 1.181270
356.200 1.184698
356.300 1.180173
356.400 1.169066
356.500 1.161799
356.600 1.161113
356.700 1.159879
356.800 1.161251
356.900 1.156314
357.000 1.145893
357.100 1.123954
357.200 1.111065
357.300 1.107912
357.400 1.108734
357.500 1.113808
357.600 1.121623
357.700 1.123269
357.800 1.121898
357.900 1.117921
358.000 1.117099
358.100 1.116002
358.200 1.112848
358.300 1.112848
358.400 1.110106
358.500 1.102290
358.600 1.092417
358.700 1.087618
358.800 1.087618
358.900 1.096668
359.000 1.107500
359.100 1.110106
359.200 1.107775
359.300 1.108323
359.400 1.110791
359.500 1.115865
359.600 1.119018
359.700 1.121761
359.800 1.126148
359.900 1.131085
360.000 1.134238
360.100 1.128754
360.200 1.125463
360.300 1.118744
360.400 1.114905
360.500 1.116139
360.600 1.119292
360.700 1.119155
360.800 1.120527
360.900 1.124914
361.000 1.127245
361.100 1.124366
361.200 1.122858
361.300 1.120801
361.400 1.121212
361.500 1.125600
361.600 1.129988
361.700 1.132456
361.800 1.132593
361.900 1.132182
362.000 1.130810
362.100 1.132182
362.200 1.141917
362.300 1.146305
362.400 1.144796
362.500 1.150144
362.600 1.159742
362.700 1.167832
362.800 1.164678
362.900 1.153435
363.000 1.141780
363.100 1.134101
363.200 1.135472
363.300 1.146305
363.400 1.159331
363.500 1.157411
363.600 1.138215
363.700 1.127657
363.800 1.129302
363.900 1.134238
364.000 1.136706
364.100 1.135335
364.200 1.131359
364.300 1.123954
364.400 1.117647
364.500 1.118333
364.600 1.115042
364.700 1.115042
364.800 1.117373
364.900 1.116550
365.000 1.116961
365.100 1.117373
365.200 1.121349
365.300 1.124366
365.400 1.126834
365.500 1.129576
365.600 1.133964
365.700 1.133278
365.800 1.131496
365.900 1.129302
366.000 1.122035
366.100 1.117647
366.200 1.114356
366.300 1.117647
366.400 1.121075
366.500 1.121349
366.600 1.120115
366.700 1.115179
366.800 1.111340
366.900 1.111340
367.000 1.114493
367.100 1.116824
367.200 1.121349
367.300 1.120115
367.400 1.115042
367.500 1.106266
367.600 1.098588
367.700 1.094200
367.800 1.091869
367.900 1.094063
368.000 1.098176
368.100 1.103524
368.200 1.101330
368.300 1.097765
368.400 1.094886
368.500 1.088715
368.600 1.081859
368.700 1.081996
368.800 1.099685
368.900 1.121486
369.000 1.121075
369.100 1.102975
369.200 1.102290
369.300 1.118196
369.400 1.135472
369.500 1.134924
369.600 1.107912
369.700 1.091183
369.800 1.098451
369.900 1.137392
370.000 1.181407
370.100 1.184286
370.200 1.144248
370.300 1.074318
370.400 1.038667
370.500 1.040587
370.600 1.087755
370.700 1.139175
370.800 1.176059
370.900 1.158508
371.000 1.104347
371.100 1.051145
371.200 1.020293
371.300 1.041684
371.400 1.103387
371.500 1.192788
371.600 1.249417
371.700 1.281091
371.800 1.268614
371.900 1.204443
372.000 1.096394
372.100 1.024133
372.200 0.984506
372.300 1.016728
372.400 1.099410
372.500 1.197998
372.600 1.259427
372.700 1.316605
372.800 1.341012
372.900 1.345948
373.000 1.322775
373.100 1.257096
373.200 1.145482
373.300 1.048265
373.400 0.963115
373.500 0.947758
373.600 0.998355
373.700 1.103387
373.800 1.203346
373.900 1.321130
374.000 1.387632
374.100 1.434252
374.200 1.447964
374.300 1.436994
374.400 1.409571
374.500 1.365008
374.600 1.292746
374.700 1.202112
374.800 1.100096
374.900 0.987934
375.000 0.942959
375.100 0.956534
375.200 1.033320
375.300 1.143151
375.400 1.259701
375.500 1.336350
375.600 1.405457
375.700 1.431510
375.800 1.446593
375.900 1.449335
376.000 1.449335
376.100 1.452077
376.200 1.464418
376.300 1.457562
376.400 1.435623
376.500 1.386261
376.600 1.319347
376.700 1.243795
376.800 1.129988
376.900 1.021527
377.000 0.934183
377.100 0.905800
377.200 0.964212
377.300 1.075552
377.400 1.172906
377.500 1.273139
377.600 1.351570
377.700 1.420540
377.800 1.489099
377.900 1.535719
378.000 1.582339
378.100 1.608392
378.200 1.627588
378.300 1.633073
378.400 1.635815
378.500 1.635815
378.600 1.627588
378.700 1.608392
378.800 1.586453
378.900 1.560400
379.000 1.523379
379.100 1.483614
379.200 1.421911
379.300 1.355135
379.400 1.269848
379.500 1.152475
379.600 1.043466
379.700 0.931990
379.800 0.881942
379.900 0.911285
380.000 1.015220
380.100 1.130125
380.200 1.256547
380.300 1.337310
380.400 1.416427
380.500 1.472645
380.600 1.513780
380.700 1.559029
380.800 1.594680
380.900 1.634444
381.000 1.663239
381.100 1.682435
381.200 1.679693
381.300 1.670095
381.400 1.660496
381.500 1.663239
381.600 1.667352
381.700 1.670095
381.800 1.661868
381.900 1.637186
382.000 1.616619
382.100 1.607020
382.200 1.616619
382.300 1.613876
382.400 1.589195
382.500 1.559029
382.600 1.517894
382.700 1.486357
382.800 1.441108
382.900 1.384890
383.000 1.326477
383.100 1.242424
383.200 1.157137
383.300 1.041135
383.400 0.918963
383.500 0.857398
383.600 0.849445
383.700 0.911833
383.800 1.013849
383.900 1.121349
384.000 1.216098
384.100 1.316194
384.200 1.387632
384.300 1.464418
384.400 1.515152
384.500 1.561772
384.600 1.598793
384.700 1.626217
384.800 1.649527
384.900 1.661868
385.000 1.674208
385.100 1.693405
385.200 1.711230
385.300 1.722199
385.400 1.722199
385.500 1.716715
385.600 1.709859
385.700 1.709859
385.800 1.720828
385.900 1.734540
386.000 1.745509
386.100 1.749623
386.200 1.740025
386.300 1.713972
386.400 1.707116
386.500 1.707116
386.600 1.712601
386.700 1.719457
386.800 1.724942
386.900 1.723571
387.000 1.709859
387.100 1.692033
387.200 1.667352
387.300 1.653640
387.400 1.650898
387.500 1.648156
387.600 1.635815
387.700 1.605649
387.800 1.578226
387.900 1.549431
388.000 1.526121
388.100 1.493213
388.200 1.439737
388.300 1.387632
388.400 1.314137
388.500 1.229124
388.600 1.124777
388.700 0.991087
388.800 0.891814
388.900 0.840395
389.000 0.873166
389.100 0.971068
389.200 1.096531
389.300 1.192788
389.400 1.285479
389.500 1.348279
389.600 1.413684
389.700 1.468531
389.800 1.506924
389.900 1.538462
390.000 1.560400
390.100 1.593309
390.200 1.627588
390.300 1.652269
390.400 1.664610
390.500 1.671466
390.600 1.681064
390.700 1.698889
390.800 1.727684
390.900 1.755108
391.000 1.767448
391.100 1.772933
391.200 1.767448
391.300 1.755108
391.400 1.744138
391.500 1.748252
391.600 1.761964
391.700 1.768819
391.800 1.767448
391.900 1.760592
392.000 1.760592
392.100 1.763335
392.200 1.761964
392.300 1.757850
392.400 1.755108
392.500 1.757850
392.600 1.752365
392.700 1.744138
392.800 1.723571
392.900 1.701632
393.000 1.675579
393.100 1.619361
393.200 1.517894
393.300 1.402715
393.400 1.386261
393.500 1.460304
393.600 1.563143
393.700 1.642671
393.800 1.694776
393.900 1.720828
394.000 1.738654
394.100 1.750994
394.200 1.752365
394.300 1.745509
394.400 1.735911
394.500 1.722199
394.600 1.713972
394.700 1.711230
394.800 1.705745
394.900 1.698889
395.000 1.690662
395.100 1.679693
395.200 1.668723
395.300 1.663239
395.400 1.656383
395.500 1.638558
395.600 1.617990
395.700 1.593309
395.800 1.575483
395.900 1.553544
396.000 1.519265
396.100 1.479501
396.200 1.424654
396.300 1.376663
396.400 1.309886
396.500 1.226793
396.600 1.119567
396.700 0.961744
396.800 0.824626
396.900 0.729467
397.000 0.715755
397.100 0.778692
397.200 0.895516
397.300 1.010147
397.400 1.130125
397.500 1.217469
397.600 1.297957
397.700 1.363362
397.800 1.408200
397.900 1.460304
398.000 1.493213
398.100 1.526121
398.200 1.550802
398.300 1.571370
398.400 1.596051
398.500 1.616619
398.600 1.628959
398.700 1.634444
398.800 1.656383
398.900 1.670095
399.000 1.679693
399.100 1.689291
399.200 1.694776
399.300 1.703003
399.400 1.708488
399.500 1.712601
399.600 1.709859
399.700 1.707116
399.800 1.705745
399.900 1.712601
400.000 1.709859
400.100 1.707116
400.200 1.705745
400.300 1.700261
400.400 1.700261
400.500 1.698889
400.600 1.700261
400.700 1.704374
400.800 1.711230
400.900 1.713972
401.000 1.713972
401.100 1.715343
401.200 1.719457
401.300 1.722199
401.400 1.722199
401.500 1.726313
401.600 1.734540
401.700 1.744138
401.800 1.753736
401.900 1.756479
402.000 1.755108
402.100 1.750994
402.200 1.741396
402.300 1.723571
402.400 1.700261
402.500 1.679693
402.600 1.675579
402.700 1.687920
402.800 1.705745
402.900 1.719457
403.000 1.729055
403.100 1.731798
403.200 1.734540
403.300 1.735911
403.400 1.740025
403.500 1.748252
403.600 1.756479
403.700 1.763335
403.800 1.763335
403.900 1.757850
404.000 1.755108
404.100 1.753736
404.200 1.750994
404.300 1.746881
404.400 1.733169
404.500 1.716715
404.600 1.708488
404.700 1.718086
404.800 1.733169
404.900 1.742767
405.000 1.744138
405.100 1.744138
405.200 1.742767
405.300 1.733169
405.400 1.724942
405.500 1.727684
405.600 1.730426
405.700 1.734540
405.800 1.735911
405.900 1.738654
406.000 1.740025
406.100 1.730426
406.200 1.715343
406.300 1.701632
406.400 1.686549
406.500 1.657754
406.600 1.656383
406.700 1.660496
406.800 1.660496
406.900 1.660496
407.000 1.650898
407.100 1.633073
407.200 1.624846
407.300 1.622103
407.400 1.626217
407.500 1.626217
407.600 1.612505
407.700 1.598793
407.800 1.591937
407.900 1.597422
408.000 1.607020
408.100 1.608392
408.200 1.604278
408.300 1.593309
408.400 1.580968
408.500 1.567256
408.600 1.553544
408.700 1.545317
408.800 1.534348
408.900 1.523379
409.000 1.500069
409.100 1.478130
409.200 1.452077
409.300 1.413684
409.400 1.376663
409.500 1.320993
409.600 1.264500
409.700 1.199781
409.800 1.113396
409.900 1.020979
410.000 0.905252
410.100 0.817908
410.200 0.790347
410.300 0.842452
410.400 0.942959
410.500 1.059646
410.600 1.140683
410.700 1.213630
410.800 1.270671
410.900 1.315097
411.000 1.360483
411.100 1.393117
411.200 1.428767
411.300 1.454820
411.400 1.482243
411.500 1.506924
411.600 1.526121
411.700 1.535719
411.800 1.537090
411.900 1.541204
412.000 1.545317
412.100 1.552173
412.200 1.559029
412.300 1.568627
412.400 1.580968
412.500 1.593309
412.600 1.590566
412.700 1.580968
412.800 1.571370
412.900 1.567256
413.000 1.567256
413.100 1.571370
413.200 1.578226
413.300 1.589195
413.400 1.605649
413.500 1.616619
413.600 1.623475
413.700 1.630330
413.800 1.637186
413.900 1.644042
414.000 1.644042
414.100 1.635815
414.200 1.622103
414.300 1.609763
414.400 1.604278
414.500 1.611134
414.600 1.623475
414.700 1.630330
414.800 1.630330
414.900 1.630330
415.000 1.634444
415.100 1.639929
415.200 1.639929
