# Wavelength (nm)   F_lamA (normalized erg/cm2/s/A)9.100 0.000001
9.400 0.000002
9.600 0.000003
9.800 0.000004
10.000 0.000006
10.200 0.000010
10.400 0.000014
10.600 0.000021
10.800 0.000031
11.000 0.000044
11.400 0.000086
11.800 0.000160
12.100 0.000247
12.500 0.000425
12.700 0.000549
12.800 0.000623
13.100 0.000894
13.200 0.001004
13.400 0.001260
13.700 0.001746
14.000 0.002380
14.300 0.003197
14.700 0.004636
15.100 0.006570
15.500 0.009113
15.900 0.012405
16.200 0.015447
16.600 0.020389
17.000 0.026503
17.300 0.031950
17.700 0.040513
18.000 0.048013
18.200 0.053563
18.600 0.066085
19.100 0.084677
19.400 0.097434
19.800 0.116642
20.200 0.138416
20.500 0.156452
21.000 0.190103
21.600 0.236584
22.000 0.271408
22.300 0.299560
22.700 0.340029
23.000 11.202346
23.400 12.338710
24.000 15.931085
24.600 21.788856
25.200 26.627566
25.700 20.593842
26.000 29.420821
26.400 37.148094
26.900 37.807918
27.400 38.394428
27.900 36.913490
28.400 38.834311
29.000 38.643695
29.600 35.520528
30.100 24.618768
30.800 30.601173
31.800 38.093842
32.800 38.189150
33.800 37.434018
34.800 36.744868
35.700 37.272727
36.600 37.712610
37.500 37.082111
38.500 35.102639
39.500 35.997067
40.500 36.041056
41.400 35.557185
42.200 34.662757
43.000 34.076246
44.100 34.120235
45.100 33.541056
46.000 32.624633
47.000 32.052786
48.000 31.759531
49.000 30.747801
50.000 30.667155
50.600 32.983871
51.200 39.068915
52.000 38.313783
53.000 37.624633
54.000 35.652493
55.000 35.212610
56.000 36.151026
57.000 35.674487
58.000 34.560117
59.000 34.398827
60.000 33.387097
61.000 32.441349
62.000 32.771261
63.000 32.074780
64.000 31.730205
65.000 31.019062
65.800 30.241935
66.500 30.293255
67.500 29.963343
68.500 28.878299
69.500 28.929619
70.500 27.807918
71.600 27.969208
72.600 27.551320
73.500 27.177419
74.500 26.590909
75.500 26.107038
76.500 25.447214
77.500 25.219941
78.500 24.772727
79.500 24.398827
80.500 24.076246
81.500 23.731672
82.500 23.416422
83.500 22.434018
84.500 22.631965
85.500 22.221408
86.500 21.986804
87.500 21.656891
88.500 21.312317
89.500 20.967742
90.500 20.498534
91.500 21.854839
92.500 37.441349
93.500 51.260997
94.500 71.627566
95.500 78.152493
96.500 89.076246
97.500 58.086510
98.500 88.049853
99.500 83.137830
100.500 86.070381
101.500 81.598240
102.500 53.863636
103.500 76.173021
104.500 81.231672
105.500 79.545455
106.500 75.439883
107.500 75.219941
108.500 70.014663
109.500 72.778592
110.500 70.329912
111.500 68.885630
112.500 65.696481
113.500 66.143695
114.500 63.995601
115.500 62.969208
116.500 61.737537
117.500 55.491202
118.500 58.423754
119.500 56.253666
120.500 52.697947
121.500 36.341642
122.500 50.799120
123.500 52.199413
124.500 51.268328
125.500 50.733138
126.500 49.655425
127.500 48.973607
128.500 48.027859
129.500 46.195015
130.500 45.439883
131.500 45.153959
132.500 43.929619
133.500 42.734604
134.500 42.390029
135.500 41.605572
136.500 40.601173
137.500 39.758065
138.500 39.076246
139.500 36.774194
140.500 35.813783
141.500 36.796188
142.500 35.931085
143.500 35.403226
144.200 34.956012
144.700 34.596774
145.500 34.017595
146.500 33.350440
147.500 32.727273
148.500 32.162757
149.500 31.510264
150.500 30.843109
151.200 30.388563
151.700 30.146628
152.500 29.648094
153.500 28.651026
154.500 27.705279
155.500 27.221408
156.500 27.221408
157.500 26.928152
158.500 26.539589
159.500 26.092375
160.500 25.307918
161.500 24.853372
162.500 24.457478
163.500 23.929619
164.500 22.976540
165.500 23.357771
166.500 23.027859
167.200 22.573314
167.700 22.675953
168.500 22.338710
169.500 21.913490
170.500 21.488270
171.500 20.960411
172.500 20.659824
173.500 20.483871
174.500 20.095308
175.500 19.780059
176.500 19.354839
177.500 19.120235
178.500 18.848974
179.500 18.555718
180.500 18.284457
181.500 17.939883
182.500 17.661290
183.500 17.382698
184.500 16.957478
185.500 16.605572
186.500 16.414956
187.500 16.260997
188.500 15.835777
189.500 15.491202
190.500 15.439883
191.500 15.073314
192.500 14.794721
193.500 14.692082
194.500 14.552786
195.500 14.149560
196.700 14.061584
197.600 13.929619
198.400 13.680352
199.500 13.357771
200.500 13.284457
201.500 13.123167
202.500 12.961877
203.500 12.719941
204.500 12.529326
205.500 11.136364
206.500 11.385630
207.400 12.074780
207.800 11.964809
208.500 11.884164
209.500 11.686217
210.500 11.568915
211.500 11.458944
212.500 11.312317
213.500 11.136364
214.500 10.960411
215.500 10.865103
216.500 10.652493
217.500 10.557185
218.500 10.359238
219.500 10.285924
220.500 10.131965
221.500 9.926686
222.500 9.838710
223.500 9.721408
224.500 9.589443
225.500 9.384164
226.500 9.318182
227.500 9.200880
228.500 9.083578
229.500 8.878299
230.500 8.768328
231.500 8.709677
232.500 8.350440
233.500 8.475073
234.500 8.343109
235.500 8.262463
236.500 8.130499
237.500 8.035191
238.500 7.844575
239.500 7.822581
240.500 7.719941
241.500 7.624633
242.500 7.543988
243.500 7.441349
244.500 7.353372
245.500 7.261730
246.500 7.164956
247.500 7.074047
248.500 6.991202
249.500 6.778592
250.500 6.818182
251.300 6.579912
251.800 6.700880
252.500 6.639296
253.500 6.554252
254.500 6.471408
255.500 6.411290
256.500 6.330645
257.500 6.263196
258.500 6.187683
259.500 6.109971
260.500 6.034457
261.500 5.959677
262.500 5.897361
263.500 5.830645
264.500 5.793255
265.500 5.724340
266.500 5.645161
267.500 5.583578
268.500 5.538123
269.500 5.446481
270.500 5.406891
271.500 5.337243
272.500 5.252933
273.500 5.170088
274.500 5.136364
275.500 5.085044
276.500 5.015396
277.500 4.994135
278.500 4.931818
279.500 4.826246
280.500 4.793255
281.500 4.779326
282.500 4.707478
283.500 4.662757
284.500 4.622434
285.500 4.568182
286.500 4.527126
287.500 4.478006
288.500 4.432551
289.500 4.384164
291.000 4.322581
293.000 4.228739
295.000 4.123167
297.000 4.057185
299.000 3.974340
301.000 3.878299
303.000 3.783724
305.000 3.692815
307.000 3.603372
309.000 3.519062
311.000 3.434751
313.000 3.352639
315.000 3.277859
317.000 3.203812
319.000 3.108504
321.000 3.044721
323.000 2.986070
325.000 2.924487
327.000 2.865103
329.000 2.802786
331.000 2.746334
332.200 2.695748
332.300 2.714076
332.400 2.700880
332.500 2.696481
332.600 2.677419
332.700 2.658358
332.800 2.647361
332.900 2.649560
333.000 2.653959
333.100 2.651026
333.200 2.637830
333.300 2.613636
333.400 2.599707
333.500 2.590909
333.600 2.580645
333.700 2.567449
333.800 2.548387
333.900 2.543988
334.000 2.530792
334.100 2.548387
334.200 2.562317
334.300 2.612903
334.400 2.648827
334.500 2.671554
334.600 2.694282
334.700 2.697947
334.800 2.659091
334.900 2.587977
335.000 2.478739
335.100 2.481672
335.200 2.516129
335.300 2.533724
335.400 2.528592
335.500 2.505865
335.600 2.502199
335.700 2.505132
335.800 2.507331
335.900 2.505865
336.000 2.515396
336.100 2.516129
336.200 2.527126
336.300 2.519062
336.400 2.513196
336.500 2.487537
336.600 2.464809
336.700 2.446481
336.800 2.435484
336.900 2.440616
337.000 2.467742
337.100 2.468475
337.200 2.443548
337.300 2.444282
337.400 2.458211
337.500 2.495601
337.600 2.508065
337.700 2.472874
337.800 2.456012
337.900 2.451613
338.000 2.478739
338.100 2.507331
338.200 2.523460
338.300 2.521994
338.400 2.510264
338.500 2.518328
338.600 2.531525
338.700 2.538856
338.800 2.537390
338.900 2.517595
339.000 2.512463
339.100 2.512463
339.200 2.524927
339.300 2.534457
339.400 2.564516
339.500 2.568915
339.600 2.553519
339.700 2.521994
339.800 2.496334
339.900 2.442082
340.000 2.415689
340.100 2.430352
340.200 2.410557
340.300 2.398094
340.400 2.402493
340.500 2.410557
340.600 2.401026
340.700 2.404692
340.800 2.416422
340.900 2.428152
341.000 2.434018
341.100 2.396628
341.200 2.397361
341.300 2.419355
341.400 2.447214
341.500 2.464809
341.600 2.467009
341.700 2.467009
341.800 2.469941
341.900 2.477273
342.000 2.477273
342.100 2.478006
342.200 2.471408
342.300 2.468475
342.400 2.463343
342.500 2.456745
342.600 2.466276
342.700 2.472874
342.800 2.486070
342.900 2.486070
343.000 2.462610
343.100 2.458944
343.200 2.456012
343.300 2.463343
343.400 2.468475
343.500 2.475806
343.600 2.480938
343.700 2.475806
343.800 2.468475
343.900 2.450147
344.000 2.410557
344.100 2.389296
344.200 2.386364
344.300 2.408358
344.400 2.425953
344.500 2.409824
344.600 2.404692
344.700 2.403959
344.800 2.425953
344.900 2.443548
345.000 2.386364
345.100 2.340909
345.200 2.322581
345.300 2.322581
345.400 2.335044
345.500 2.339443
345.600 2.340909
345.700 2.337977
345.800 2.331378
345.900 2.326246
346.000 2.318915
346.100 2.316716
346.200 2.331378
346.300 2.396628
346.400 2.366569
346.500 2.365103
346.600 2.373900
346.700 2.370235
346.800 2.362903
346.900 2.362903
347.000 2.370968
347.100 2.342375
347.200 2.337977
347.300 2.359238
347.400 2.359971
347.500 2.346774
347.600 2.324780
347.700 2.275660
347.800 2.233138
347.900 2.220674
348.000 2.247801
348.100 2.283724
348.200 2.270528
348.300 2.240469
348.400 2.241935
348.500 2.288856
348.600 2.318915
348.700 2.337977
348.800 2.368768
348.900 2.370968
349.000 2.351173
349.100 2.343109
349.200 2.362903
349.300 2.365836
349.400 2.358504
349.500 2.343842
349.600 2.319648
349.700 2.322581
349.800 2.336510
349.900 2.340176
350.000 2.310850
350.100 2.274194
350.200 2.278592
350.300 2.290323
350.400 2.273460
350.500 2.244135
350.600 2.232405
350.700 2.239736
350.800 2.259531
350.900 2.262463
351.000 2.260997
351.100 2.260997
351.200 2.254399
351.300 2.241935
351.400 2.247067
351.500 2.255132
351.600 2.270528
351.700 2.263196
351.800 2.261730
351.900 2.265396
352.000 2.265396
352.100 2.256598
352.200 2.247801
352.300 2.248534
352.400 2.266129
352.500 2.248534
352.600 2.243402
352.700 2.241202
352.800 2.250733
352.900 2.267595
353.000 2.278592
353.100 2.288123
353.200 2.300587
353.300 2.287390
353.400 2.260997
353.500 2.254399
353.600 2.258798
353.700 2.241202
353.800 2.239736
353.900 2.241935
354.000 2.259531
354.100 2.270528
354.200 2.268328
354.300 2.260997
354.400 2.265396
354.500 2.271261
354.600 2.266862
354.700 2.275660
354.800 2.285924
354.900 2.282258
355.000 2.268328
355.100 2.262463
355.200 2.271994
355.300 2.281525
355.400 2.276393
355.500 2.263930
355.600 2.251466
355.700 2.255132
355.800 2.260264
355.900 2.256598
356.000 2.250000
356.100 2.258798
356.200 2.267595
356.300 2.259531
356.400 2.246334
356.500 2.248534
356.600 2.250733
356.700 2.230205
356.800 2.236070
356.900 2.228739
357.000 2.199413
357.100 2.143695
357.200 2.129765
357.300 2.132698
357.400 2.129032
357.500 2.134164
357.600 2.148094
357.700 2.148827
357.800 2.144428
357.900 2.138563
358.000 2.144428
358.100 2.151760
358.200 2.142962
358.300 2.139296
358.400 2.142229
358.500 2.134164
358.600 2.120968
358.700 2.112903
358.800 2.103372
358.900 2.104106
359.000 2.121701
359.100 2.129032
359.200 2.125367
359.300 2.129765
359.400 2.132698
359.500 2.131965
359.600 2.126833
359.700 2.130499
359.800 2.140029
359.900 2.149560
360.000 2.167155
360.100 2.163490
360.200 2.163490
360.300 2.147361
360.400 2.134164
360.500 2.132698
360.600 2.134164
360.700 2.136364
360.800 2.147361
360.900 2.156158
361.000 2.153226
361.100 2.129032
361.200 2.126833
361.300 2.122434
361.400 2.109238
361.500 2.107771
361.600 2.124633
361.700 2.138563
361.800 2.148827
361.900 2.151760
362.000 2.131232
362.100 2.130499
362.200 2.155425
362.300 2.159091
362.400 2.148827
362.500 2.148094
362.600 2.160557
362.700 2.173021
362.800 2.164956
362.900 2.149560
363.000 2.150293
363.100 2.149560
363.200 2.139296
363.300 2.135630
363.400 2.159824
363.500 2.157625
363.600 2.111437
363.700 2.092375
363.800 2.096041
363.900 2.098974
364.000 2.104106
364.100 2.113636
364.200 2.118035
364.300 2.101906
364.400 2.078446
364.500 2.073314
364.600 2.072581
364.700 2.077713
364.800 2.085777
364.900 2.087977
365.000 2.085044
365.100 2.076979
365.200 2.074047
365.300 2.071848
365.400 2.070381
365.500 2.079179
365.600 2.087243
365.700 2.082111
365.800 2.076246
365.900 2.070381
366.000 2.057918
366.100 2.057918
366.200 2.056452
366.300 2.065982
366.400 2.068915
366.500 2.062317
366.600 2.058651
366.700 2.052053
366.800 2.049120
366.900 2.056452
367.000 2.060117
367.100 2.055718
367.200 2.052053
367.300 2.045455
367.400 2.040323
367.500 2.033724
367.600 2.041056
367.700 2.032991
367.800 2.024194
367.900 2.022727
368.000 2.026393
368.100 2.036657
368.200 2.040323
368.300 2.034457
368.400 2.026393
368.500 2.019062
368.600 2.009531
368.700 2.005865
368.800 2.024927
368.900 2.054985
369.000 2.054252
369.100 2.030059
369.200 2.032258
369.300 2.051320
369.400 2.063050
369.500 2.054252
369.600 2.024927
369.700 2.002933
369.800 2.001466
369.900 2.043988
370.000 2.098974
370.100 2.102639
370.200 2.052786
370.300 1.970674
370.400 1.921554
370.500 1.912757
370.600 1.961144
370.700 2.013930
370.800 2.054252
370.900 2.036657
371.000 1.984604
371.100 1.923754
371.200 1.887830
371.300 1.903959
371.400 1.971408
371.500 2.069648
371.600 2.119501
371.700 2.137830
371.800 2.132698
371.900 2.062317
372.000 1.941349
372.100 1.868768
372.200 1.829179
372.300 1.859238
372.400 1.936950
372.500 2.032258
372.600 2.071114
372.700 2.112903
372.800 2.132698
372.900 2.142229
373.000 2.134164
373.100 2.078446
373.200 1.976540
373.300 1.874633
373.400 1.785924
373.500 1.764663
373.600 1.814516
373.700 1.923754
373.800 2.013196
373.900 2.114370
374.000 2.170821
374.100 2.200880
374.200 2.196481
374.300 2.173021
374.400 2.153959
374.500 2.123900
374.600 2.063050
374.700 1.971408
374.800 1.871701
374.900 1.750733
375.000 1.711144
375.100 1.747067
375.200 1.843842
375.300 1.934751
375.400 2.029326
375.500 2.084311
375.600 2.126833
375.700 2.124633
375.800 2.096041
375.900 2.068182
376.000 2.052786
376.100 2.051320
376.200 2.102639
376.300 2.127566
376.400 2.116569
376.500 2.082845
376.600 2.032258
376.700 1.969941
376.800 1.873167
376.900 1.763196
377.000 1.673754
377.100 1.645894
377.200 1.722141
377.300 1.840909
377.400 1.937683
377.500 2.008798
377.600 2.057918
377.700 2.095308
377.800 2.133431
377.900 2.151760
378.000 2.169355
378.100 2.184018
378.200 2.195015
378.300 2.182551
378.400 2.173021
378.500 2.181085
378.600 2.176686
378.700 2.158358
378.800 2.141496
378.900 2.128299
379.000 2.112903
379.100 2.091642
379.200 2.066716
379.300 2.030792
379.400 1.967009
379.500 1.862170
379.600 1.741935
379.700 1.623167
379.800 1.567449
379.900 1.612903
380.000 1.749267
380.100 1.880499
380.200 1.980938
380.300 2.039589
380.400 2.079179
380.500 2.112903
380.600 2.112170
380.700 2.119501
380.800 2.135630
380.900 2.156891
381.000 2.180352
381.100 2.191349
381.200 2.171554
381.300 2.141496
381.400 2.118768
381.500 2.110704
381.600 2.109971
381.700 2.114370
381.800 2.103372
381.900 2.081378
382.000 2.058651
382.100 2.052053
382.200 2.086510
382.300 2.109238
382.400 2.099707
382.500 2.074780
382.600 2.046921
382.700 2.045455
382.800 2.035924
382.900 2.003666
383.000 1.961877
383.100 1.905425
383.200 1.824047
383.300 1.705279
383.400 1.563050
383.500 1.491202
383.600 1.491935
383.700 1.586510
383.800 1.706745
383.900 1.824780
384.000 1.899560
384.100 1.962610
384.200 2.005132
384.300 2.052053
384.400 2.090176
384.500 2.118035
384.600 2.118768
384.700 2.120235
384.800 2.117302
384.900 2.118035
385.000 2.113636
385.100 2.126100
385.200 2.140029
385.300 2.139296
385.400 2.126833
385.500 2.111437
385.600 2.093842
385.700 2.087977
385.800 2.098240
385.900 2.117302
386.000 2.124633
386.100 2.129765
386.200 2.115103
386.300 2.082845
386.400 2.076979
386.500 2.075513
386.600 2.076246
386.700 2.090909
386.800 2.107038
386.900 2.108504
387.000 2.097507
387.100 2.077713
387.200 2.053519
387.300 2.043988
387.400 2.054985
387.500 2.071848
387.600 2.074780
387.700 2.059384
387.800 2.043988
387.900 2.036657
388.000 2.042522
388.100 2.027126
388.200 1.993402
388.300 1.958211
388.400 1.920821
388.500 1.851173
388.600 1.742669
388.700 1.594575
388.800 1.465543
388.900 1.411290
389.000 1.472141
389.100 1.618035
389.200 1.769062
389.300 1.870968
389.400 1.932551
389.500 1.965543
389.600 1.991935
389.700 2.020528
389.800 2.035924
389.900 2.033724
390.000 2.033724
390.100 2.052786
390.200 2.075513
390.300 2.090176
390.400 2.091642
390.500 2.082845
390.600 2.067449
390.700 2.071848
390.800 2.102639
390.900 2.125367
391.000 2.124633
391.100 2.126833
391.200 2.122434
391.300 2.100440
391.400 2.084311
391.500 2.089443
391.600 2.097507
391.700 2.099707
391.800 2.090176
391.900 2.069648
392.000 2.062317
392.100 2.060117
392.200 2.049120
392.300 2.027126
392.400 2.022727
392.500 2.037390
392.600 2.033724
392.700 2.030792
392.800 2.013930
392.900 1.993402
393.000 1.967742
393.100 1.909824
393.200 1.762463
393.300 1.565249
393.400 1.563783
393.500 1.719941
393.600 1.846774
393.700 1.918622
393.800 1.965543
393.900 1.998534
394.000 2.030792
394.100 2.052053
394.200 2.056452
394.300 2.042522
394.400 2.030792
394.500 2.012463
394.600 2.009531
394.700 2.021994
394.800 2.025660
394.900 2.019062
395.000 2.011730
395.100 2.002933
395.200 1.997801
395.300 2.000000
395.400 2.005132
395.500 2.000000
395.600 1.983871
395.700 1.967009
395.800 1.961877
395.900 1.966276
396.000 1.961144
396.100 1.943548
396.200 1.907625
396.300 1.864370
396.400 1.812317
396.500 1.747067
396.600 1.642962
396.700 1.436217
396.800 1.213343
396.900 1.115836
397.000 1.140029
397.100 1.259531
397.200 1.426686
397.300 1.574780
397.400 1.689150
397.500 1.772727
397.600 1.832845
397.700 1.869501
397.800 1.883431
397.900 1.912757
398.000 1.928886
398.100 1.940616
398.200 1.939883
398.300 1.934018
398.400 1.945015
398.500 1.960411
398.600 1.945748
398.700 1.911290
398.800 1.959677
398.900 1.975806
399.000 1.984604
399.100 1.991935
399.200 1.995601
399.300 1.999267
399.400 1.992669
399.500 1.990469
399.600 1.973607
399.700 1.964076
399.800 1.965543
399.900 1.970674
400.000 1.961877
400.100 1.956012
400.200 1.956745
400.300 1.954545
400.400 1.957478
400.500 1.956012
400.600 1.955279
400.700 1.958211
400.800 1.964809
400.900 1.961877
401.000 1.956745
401.100 1.962610
401.200 1.966276
401.300 1.968475
401.400 1.972874
401.500 1.975806
401.600 1.982405
401.700 1.994135
401.800 2.003666
401.900 2.010997
402.000 2.008065
402.100 1.994135
402.200 1.980205
402.300 1.947214
402.400 1.897361
402.500 1.854839
402.600 1.850440
402.700 1.885630
402.800 1.928886
402.900 1.953812
403.000 1.969941
403.100 1.968475
403.200 1.967009
403.300 1.967009
403.400 1.969941
403.500 1.978006
403.600 1.986804
403.700 1.992669
403.800 1.997801
403.900 1.993402
404.000 1.996334
404.100 2.002199
404.200 1.994868
404.300 1.986070
404.400 1.974340
404.500 1.958211
404.600 1.947214
404.700 1.959677
404.800 1.976540
404.900 1.985337
405.000 1.984604
405.100 1.983871
405.200 1.986804
405.300 1.978006
405.400 1.975073
405.500 1.982405
405.600 1.983871
405.700 1.986804
405.800 1.992669
405.900 1.997801
406.000 1.993402
406.100 1.971408
406.200 1.960411
406.300 1.953079
406.400 1.912757
406.500 1.838710
406.600 1.864370
406.700 1.896628
406.800 1.899560
406.900 1.895161
407.000 1.885630
407.100 1.876100
407.200 1.874633
407.300 1.870235
407.400 1.879765
407.500 1.879032
407.600 1.861437
407.700 1.844575
407.800 1.841642
407.900 1.862903
408.000 1.886364
408.100 1.898094
408.200 1.897361
408.300 1.891496
408.400 1.875367
408.500 1.867302
408.600 1.861437
408.700 1.874633
408.800 1.885630
408.900 1.888563
409.000 1.876100
409.100 1.863636
409.200 1.854839
409.300 1.832111
409.400 1.807185
409.500 1.768328
409.600 1.728006
409.700 1.682551
409.800 1.602639
409.900 1.503666
410.000 1.379765
410.100 1.263196
410.200 1.226540
410.300 1.300587
410.400 1.450880
410.500 1.594575
410.600 1.678886
410.700 1.722141
410.800 1.752933
410.900 1.766129
411.000 1.777859
411.100 1.792522
411.200 1.811584
411.300 1.829179
411.400 1.850440
411.500 1.869501
411.600 1.879765
411.700 1.869501
411.800 1.848240
411.900 1.832845
412.000 1.829179
412.100 1.830645
412.200 1.828446
412.300 1.832111
412.400 1.844575
412.500 1.858504
412.600 1.856305
412.700 1.837977
412.800 1.814516
412.900 1.807185
413.000 1.812317
413.100 1.820381
413.200 1.823314
413.300 1.828446
413.400 1.842375
413.500 1.854839
413.600 1.860704
413.700 1.865103
413.800 1.874633
413.900 1.879032
414.000 1.879765
414.100 1.875367
414.200 1.855572
