# Wavelength (nm)   F_lamA (normalized erg/cm2/s/A)9.100 0.000266
9.400 0.000312
9.600 0.000345
9.800 0.000381
10.000 0.000420
10.200 0.000463
10.400 0.000508
10.600 0.000557
10.800 0.000610
11.000 0.000668
11.400 0.000796
11.800 0.000944
12.100 0.001070
12.500 0.001261
12.700 0.001367
12.800 0.001423
13.100 0.001603
13.200 0.001668
13.400 0.001804
13.700 0.002027
14.000 0.002275
14.300 0.002551
14.700 0.002970
15.100 0.003451
15.500 0.004006
15.900 0.004646
16.200 0.005187
16.600 0.006002
17.000 0.006936
17.300 0.007718
17.700 0.008888
18.000 0.009871
18.200 0.010575
18.600 0.012120
19.100 0.014312
19.400 0.015779
19.800 0.017925
20.200 0.020297
20.500 0.022230
21.000 0.025766
21.600 0.030537
22.000 0.034053
22.300 0.036871
22.700 0.040873
23.000 1.067227
23.400 1.166128
24.000 1.481577
24.600 1.997414
25.200 2.423400
25.700 1.888171
26.000 2.667098
26.400 3.348416
26.900 3.404654
27.400 3.455074
27.900 3.322560
28.400 3.491273
29.000 3.471881
29.600 3.194570
30.100 2.230123
30.800 2.756303
31.800 3.415643
32.800 3.422107
33.800 3.352295
34.800 3.289593
35.700 3.334195
36.600 3.371041
37.500 3.313510
38.500 3.136393
39.500 3.213963
40.500 3.216548
41.400 3.171946
42.200 3.091144
43.000 3.038785
44.100 3.040724
45.100 2.989011
46.000 2.906917
47.000 2.854557
48.000 2.828054
49.000 2.737557
50.000 2.729800
50.600 2.934066
51.200 3.471235
52.000 3.403361
53.000 3.341306
54.000 3.166128
55.000 3.127343
56.000 3.209438
57.000 3.166774
58.000 3.067873
59.000 3.053006
60.000 2.963154
61.000 2.879121
62.000 2.908209
63.000 2.845507
64.000 2.815126
65.000 2.751778
65.800 2.682612
66.500 2.686490
67.500 2.657401
68.500 2.561086
69.500 2.565611
70.500 2.466710
71.600 2.480284
72.600 2.444085
73.500 2.410472
74.500 2.358759
75.500 2.315449
76.500 2.257919
77.500 2.237233
78.500 2.197802
79.500 2.164835
80.500 2.136393
81.500 2.105365
82.500 2.078216
83.500 1.990950
84.500 2.009050
85.500 1.972851
86.500 1.952812
87.500 1.923077
88.500 1.892696
89.500 1.862314
90.500 1.821590
91.500 1.946348
92.500 3.376212
93.500 4.717518
94.500 6.910149
95.500 7.886231
96.500 9.179056
97.500 5.581771
98.500 9.709114
99.500 9.553975
100.500 9.870718
101.500 8.784745
102.500 5.107304
103.500 8.054299
104.500 9.444085
105.500 9.547511
106.500 9.120879
107.500 9.276018
108.500 8.681319
109.500 9.043310
110.500 8.752424
111.500 8.597285
112.500 8.183581
113.500 8.261151
114.500 7.944409
115.500 7.828054
116.500 7.672915
117.500 6.858436
118.500 7.084680
119.500 6.502909
120.500 5.709761
121.500 3.486749
122.500 5.449257
123.500 6.111183
124.500 6.247576
125.500 6.298643
126.500 6.174531
127.500 6.245637
128.500 6.209438
129.500 5.995475
130.500 5.893988
131.500 5.961215
132.500 5.825469
133.500 5.679379
134.500 5.702650
135.500 5.601810
136.500 5.480931
137.500 5.399483
138.500 5.341306
139.500 5.099548
140.500 5.007111
141.500 5.079509
142.500 4.988365
143.500 4.909502
144.200 4.883646
144.700 4.841629
145.500 4.778927
146.500 4.681965
147.500 4.616031
148.500 4.546218
149.500 4.468649
150.500 4.396897
151.200 4.336134
151.700 4.313510
152.500 4.239173
153.500 4.113769
154.500 4.045895
155.500 3.962508
156.500 3.917259
157.500 3.909502
158.500 3.879121
159.500 3.846800
160.500 3.723335
161.500 3.678733
162.500 3.604396
163.500 3.555268
164.500 3.472527
165.500 3.442146
166.500 3.477052
167.200 3.370394
167.700 3.409825
168.500 3.393019
169.500 3.324499
170.500 3.266322
171.500 3.218487
172.500 3.171946
173.500 3.171946
174.500 3.109890
175.500 3.093083
176.500 2.993536
177.500 3.005171
178.500 2.963154
179.500 2.946348
180.500 2.923077
181.500 2.876535
182.500 2.834518
183.500 2.800905
184.500 2.726568
185.500 2.687136
186.500 2.668390
187.500 2.658694
188.500 2.603103
189.500 2.561086
190.500 2.553975
191.500 2.506787
192.500 2.477699
193.500 2.449903
194.500 2.455721
195.500 2.401422
196.700 2.399483
197.600 2.374273
198.400 2.340659
199.500 2.294118
200.500 2.277311
201.500 2.252747
202.500 2.226891
203.500 2.212670
204.500 2.195217
205.500 2.045895
206.500 2.063995
207.400 2.141564
207.800 2.123465
208.500 2.115061
209.500 2.080155
210.500 2.063995
211.500 2.053006
212.500 2.033613
213.500 1.992889
214.500 1.989657
215.500 1.970911
216.500 1.928248
217.500 1.914674
218.500 1.901099
219.500 1.908856
220.500 1.873950
221.500 1.831933
222.500 1.820297
223.500 1.837104
224.500 1.802198
225.500 1.762120
226.500 1.744021
227.500 1.748546
228.500 1.741435
229.500 1.699418
230.500 1.698125
231.500 1.685844
232.500 1.583064
233.500 1.642534
234.500 1.588235
235.500 1.623788
236.500 1.570782
237.500 1.582418
238.500 1.513251
239.500 1.541047
240.500 1.521655
241.500 1.512605
242.500 1.531351
243.500 1.505495
244.500 1.506787
245.500 1.494505
246.500 1.474467
247.500 1.451842
248.500 1.440853
249.500 1.409825
250.500 1.447317
251.300 1.392372
251.800 1.390433
252.500 1.367809
253.500 1.359405
254.500 1.354234
255.500 1.375566
256.500 1.360698
257.500 1.371687
258.500 1.363284
259.500 1.347770
260.500 1.325145
261.500 1.305107
262.500 1.317388
263.500 1.319974
264.500 1.356820
265.500 1.353588
266.500 1.318681
267.500 1.325792
268.500 1.327731
269.500 1.294118
270.500 1.294764
271.500 1.263736
272.500 1.253394
273.500 1.259858
274.500 1.203620
275.500 1.212670
276.500 1.230123
277.500 1.243697
278.500 1.221073
279.500 1.089205
280.500 1.122818
281.500 1.228830
282.500 1.221719
283.500 1.207498
284.500 1.191338
285.500 1.151261
286.500 1.186167
287.500 1.180349
288.500 1.180995
289.500 1.177117
291.000 1.188752
293.000 1.167421
295.000 1.148028
297.000 1.142211
299.000 1.135100
301.000 1.125404
303.000 1.115061
305.000 1.106658
307.000 1.092437
309.000 1.081448
311.000 1.069166
313.000 1.057531
315.000 1.047835
317.000 1.043310
319.000 1.016160
321.000 1.018746
323.000 1.001293
325.000 1.008403
327.000 1.013575
329.000 1.005818
331.000 0.998707
332.200 0.925663
332.300 0.912734
332.400 0.906917
332.500 0.910149
332.600 0.904977
332.700 0.892696
332.800 0.899806
332.900 0.909502
333.000 0.924370
333.100 0.933420
333.200 0.927602
333.300 0.921138
333.400 0.907563
333.500 0.901099
333.600 0.890110
333.700 0.879767
333.800 0.884939
333.900 0.892049
334.000 0.895281
334.100 0.899160
334.200 0.896574
334.300 0.913381
334.400 0.930834
334.500 0.932773
334.600 0.929541
334.700 0.910795
334.800 0.886231
334.900 0.863607
335.000 0.859082
335.100 0.867485
335.200 0.870718
335.300 0.875889
335.400 0.882999
335.500 0.897220
335.600 0.900452
335.700 0.891403
335.800 0.864253
335.900 0.836458
336.000 0.820297
336.100 0.824176
336.200 0.845507
336.300 0.866839
336.400 0.881707
336.500 0.870718
336.600 0.858436
336.700 0.853264
336.800 0.848739
336.900 0.849386
337.000 0.836458
337.100 0.820944
337.200 0.811248
337.300 0.822237
337.400 0.842922
337.500 0.872010
337.600 0.888817
337.700 0.879767
337.800 0.862961
337.900 0.850679
338.000 0.854557
338.100 0.865546
338.200 0.874596
338.300 0.882353
338.400 0.886878
338.500 0.893988
338.600 0.889463
338.700 0.872010
338.800 0.860375
338.900 0.875242
339.000 0.891403
339.100 0.903685
339.200 0.894635
339.300 0.878474
339.400 0.886231
339.500 0.899806
339.600 0.914674
339.700 0.919198
339.800 0.921784
339.900 0.912088
340.000 0.900452
340.100 0.894635
340.200 0.875889
340.300 0.870071
340.400 0.866193
340.500 0.872657
340.600 0.870071
340.700 0.863607
340.800 0.857789
340.900 0.862314
341.000 0.876535
341.100 0.868778
341.200 0.865546
341.300 0.865546
341.400 0.872657
341.500 0.884939
341.600 0.891403
341.700 0.893342
341.800 0.897867
341.900 0.903038
342.000 0.907563
342.100 0.908209
342.200 0.895928
342.300 0.880414
342.400 0.873950
342.500 0.877828
342.600 0.883646
342.700 0.892696
342.800 0.906270
342.900 0.919198
343.000 0.921138
343.100 0.908209
343.200 0.893342
343.300 0.886878
343.400 0.895928
343.500 0.912088
343.600 0.915966
343.700 0.907563
343.800 0.896574
343.900 0.884292
344.000 0.872010
344.100 0.857143
344.200 0.850032
344.300 0.850679
344.400 0.857143
344.500 0.864900
344.600 0.881060
344.700 0.900452
344.800 0.917259
344.900 0.928248
345.000 0.905624
345.100 0.874596
345.200 0.853911
345.300 0.848739
345.400 0.860375
345.500 0.867485
345.600 0.868132
345.700 0.868778
345.800 0.866193
345.900 0.864900
346.000 0.855850
346.100 0.848739
346.200 0.855850
346.300 0.868132
346.400 0.867485
346.500 0.861668
346.600 0.862961
346.700 0.874596
346.800 0.888171
346.900 0.898513
347.000 0.904977
347.100 0.897867
347.200 0.887524
347.300 0.868778
347.400 0.855850
347.500 0.849386
347.600 0.850679
347.700 0.862314
347.800 0.872010
347.900 0.876535
348.000 0.886231
348.100 0.887524
348.200 0.878474
348.300 0.870718
348.400 0.870071
348.500 0.884939
348.600 0.901099
348.700 0.904331
348.800 0.899160
348.900 0.884292
349.000 0.870718
349.100 0.876535
349.200 0.890110
349.300 0.891403
349.400 0.885585
349.500 0.875242
349.600 0.866839
349.700 0.870718
349.800 0.870718
349.900 0.871364
350.000 0.862961
350.100 0.857143
350.200 0.864253
350.300 0.867485
350.400 0.866193
350.500 0.857789
350.600 0.851972
350.700 0.851325
350.800 0.849386
350.900 0.851972
351.000 0.854557
351.100 0.857143
351.200 0.853911
351.300 0.846154
351.400 0.846154
351.500 0.855850
351.600 0.874596
351.700 0.886231
351.800 0.887524
351.900 0.875242
352.000 0.865546
352.100 0.859729
352.200 0.853911
352.300 0.850032
352.400 0.843568
352.500 0.838397
352.600 0.844215
352.700 0.851972
352.800 0.862961
352.900 0.875242
353.000 0.885585
353.100 0.895281
353.200 0.894635
353.300 0.879121
353.400 0.865546
353.500 0.860375
353.600 0.870718
353.700 0.883646
353.800 0.890110
353.900 0.895281
354.000 0.895281
354.100 0.892696
354.200 0.892696
354.300 0.899806
354.400 0.905624
354.500 0.904331
354.600 0.901099
354.700 0.896574
354.800 0.895281
354.900 0.894635
355.000 0.899160
355.100 0.909502
355.200 0.906917
355.300 0.894635
355.400 0.882999
355.500 0.882999
355.600 0.891403
355.700 0.904331
355.800 0.910795
355.900 0.908209
356.000 0.902392
356.100 0.900452
356.200 0.898513
356.300 0.890110
356.400 0.875242
356.500 0.864253
356.600 0.861668
356.700 0.862314
356.800 0.862314
356.900 0.857789
357.000 0.847447
357.100 0.831933
357.200 0.824822
357.300 0.823529
357.400 0.827408
357.500 0.835811
357.600 0.844861
357.700 0.850032
357.800 0.853911
357.900 0.849386
358.000 0.841629
358.100 0.832579
358.200 0.826115
358.300 0.827408
358.400 0.824176
358.500 0.812540
358.600 0.797027
358.700 0.789270
358.800 0.796380
358.900 0.816419
359.000 0.835165
359.100 0.841629
359.200 0.838397
359.300 0.837104
359.400 0.840983
359.500 0.851972
359.600 0.861021
359.700 0.864900
359.800 0.866193
359.900 0.868132
360.000 0.870071
360.100 0.861021
360.200 0.853264
360.300 0.848093
360.400 0.850679
360.500 0.853264
360.600 0.851972
360.700 0.847447
360.800 0.843568
360.900 0.846800
361.000 0.848093
361.100 0.848739
361.200 0.852618
361.300 0.855204
361.400 0.859729
361.500 0.873303
361.600 0.876535
361.700 0.872010
361.800 0.861021
361.900 0.850679
362.000 0.855204
362.100 0.864900
362.200 0.874596
362.300 0.879121
362.400 0.881707
362.500 0.893988
362.600 0.909502
362.700 0.923077
362.800 0.917259
362.900 0.898513
363.000 0.873303
363.100 0.857789
363.200 0.862314
363.300 0.879767
363.400 0.890110
363.500 0.886878
363.600 0.875889
363.700 0.877182
363.800 0.885585
363.900 0.892049
364.000 0.893988
364.100 0.889463
364.200 0.880414
364.300 0.871364
364.400 0.864900
364.500 0.864253
364.600 0.861021
364.700 0.860375
364.800 0.861668
364.900 0.860375
365.000 0.859729
365.100 0.861668
365.200 0.870718
365.300 0.879121
365.400 0.888171
365.500 0.897867
365.600 0.904977
365.700 0.906917
365.800 0.904977
365.900 0.903685
366.000 0.899806
366.100 0.892049
366.200 0.884292
366.300 0.881707
366.400 0.884292
366.500 0.889463
366.600 0.890110
366.700 0.886231
366.800 0.879121
366.900 0.873950
367.000 0.875242
367.100 0.879767
367.200 0.888171
367.300 0.891403
367.400 0.887524
367.500 0.880414
367.600 0.867485
367.700 0.856496
367.800 0.850032
367.900 0.852618
368.000 0.859082
368.100 0.863607
368.200 0.863607
368.300 0.861668
368.400 0.859729
368.500 0.851972
368.600 0.846154
368.700 0.849386
368.800 0.869425
368.900 0.892049
369.000 0.891403
369.100 0.878474
369.200 0.875889
369.300 0.885585
369.400 0.897867
369.500 0.901099
369.600 0.885585
369.700 0.870071
369.800 0.879121
369.900 0.910149
370.000 0.946348
370.100 0.946994
370.200 0.905624
370.300 0.844861
370.400 0.811248
370.500 0.811248
370.600 0.843568
370.700 0.881060
370.800 0.908209
370.900 0.898513
371.000 0.859729
371.100 0.821590
371.200 0.804137
371.300 0.828054
371.400 0.883646
371.500 0.948933
371.600 0.990304
371.700 1.009696
371.800 0.993536
371.900 0.934066
372.000 0.841629
372.100 0.776988
372.200 0.753717
372.300 0.789916
372.400 0.868778
372.500 0.944409
372.600 0.988365
372.700 1.022624
372.800 1.038785
372.900 1.042663
373.000 1.027796
373.100 0.978668
373.200 0.886878
373.300 0.800259
373.400 0.728507
373.500 0.715579
373.600 0.761474
373.700 0.847447
373.800 0.929541
373.900 1.021978
374.000 1.073691
374.100 1.105365
374.200 1.106012
374.300 1.091791
374.400 1.063995
374.500 1.028442
374.600 0.979315
374.700 0.918552
374.800 0.843568
374.900 0.766645
375.000 0.733032
375.100 0.749838
375.200 0.812540
375.300 0.910149
375.400 0.998707
375.500 1.054299
375.600 1.093730
375.700 1.099548
375.800 1.100194
375.900 1.100840
376.000 1.102133
376.100 1.112476
376.200 1.122818
376.300 1.117647
376.400 1.102133
376.500 1.067873
376.600 1.023271
376.700 0.968326
376.800 0.882353
376.900 0.800905
377.000 0.734971
377.100 0.724628
377.200 0.777634
377.300 0.867485
377.400 0.941176
377.500 1.009050
377.600 1.057531
377.700 1.104719
377.800 1.155785
377.900 1.193924
378.000 1.233355
378.100 1.253394
378.200 1.263736
378.300 1.263736
378.400 1.263090
378.500 1.257272
378.600 1.247576
378.700 1.226891
378.800 1.208145
378.900 1.190692
379.000 1.169360
379.100 1.144796
379.200 1.102780
379.300 1.054299
379.400 0.988365
379.500 0.901099
379.600 0.815772
379.700 0.729153
379.800 0.692954
379.900 0.724628
380.000 0.815772
380.100 0.910795
380.200 1.007757
380.300 1.062702
380.400 1.117001
380.500 1.150614
380.600 1.176471
380.700 1.207498
380.800 1.235941
380.900 1.269554
381.000 1.292825
381.100 1.305107
381.200 1.294118
381.300 1.278604
381.400 1.264383
381.500 1.265676
381.600 1.276665
381.700 1.289593
381.800 1.288300
381.900 1.263736
382.000 1.242405
382.100 1.233355
382.200 1.240465
382.300 1.237233
382.400 1.210730
382.500 1.182288
382.600 1.151261
382.700 1.126697
382.800 1.092437
382.900 1.054299
383.000 1.016160
383.100 0.955398
383.200 0.892696
383.300 0.798966
383.400 0.709114
383.500 0.664512
383.600 0.665158
383.700 0.714932
383.800 0.793794
383.900 0.870718
384.000 0.941176
384.100 1.017453
384.200 1.075630
384.300 1.139625
384.400 1.180995
384.500 1.215902
384.600 1.245637
384.700 1.269554
384.800 1.287654
384.900 1.292825
385.000 1.297996
385.100 1.314803
385.200 1.336781
385.300 1.354234
385.400 1.354880
385.500 1.346477
385.600 1.335488
385.700 1.330317
385.800 1.329024
385.900 1.334195
386.000 1.346477
386.100 1.359405
386.200 1.362637
386.300 1.354234
386.400 1.347770
386.500 1.343245
386.600 1.345831
386.700 1.351648
386.800 1.356820
386.900 1.354234
387.000 1.338720
387.100 1.321267
387.200 1.294764
387.300 1.281836
387.400 1.277957
387.500 1.279250
387.600 1.270200
387.700 1.241112
387.800 1.215255
387.900 1.193277
388.000 1.183581
388.100 1.166774
388.200 1.130575
388.300 1.092437
388.400 1.036199
388.500 0.970911
388.600 0.888817
388.700 0.784745
388.800 0.709114
388.900 0.677440
389.000 0.712346
389.100 0.796380
389.200 0.892049
389.300 0.957983
389.400 1.018746
389.500 1.061409
389.600 1.109890
389.700 1.149968
389.800 1.179056
389.900 1.201681
390.000 1.217841
390.100 1.243697
390.200 1.265029
390.300 1.282482
390.400 1.287654
390.500 1.290886
390.600 1.302521
390.700 1.324499
390.800 1.354880
390.900 1.381383
391.000 1.394312
391.100 1.398836
391.200 1.395604
391.300 1.385262
391.400 1.374273
391.500 1.375566
391.600 1.384615
391.700 1.387847
391.800 1.384615
391.900 1.376858
392.000 1.374919
392.100 1.376212
392.200 1.376212
392.300 1.377505
392.400 1.376858
392.500 1.376858
392.600 1.361991
392.700 1.342599
392.800 1.310278
392.900 1.274079
393.000 1.226244
393.100 1.145443
393.200 1.034260
393.300 0.928895
393.400 0.915966
393.500 0.997414
393.600 1.113122
393.700 1.209438
393.800 1.283129
393.900 1.321267
394.000 1.344538
394.100 1.360052
394.200 1.363284
394.300 1.359405
394.400 1.356173
394.500 1.351648
394.600 1.352295
394.700 1.351648
394.800 1.345184
394.900 1.336781
395.000 1.330317
395.100 1.321913
395.200 1.314803
395.300 1.314803
395.400 1.310278
395.500 1.296057
395.600 1.277957
395.700 1.257272
395.800 1.246930
395.900 1.231416
396.000 1.200388
396.100 1.163542
396.200 1.114415
396.300 1.071752
396.400 1.015514
396.500 0.936005
396.600 0.832579
396.700 0.689722
396.800 0.577893
396.900 0.513898
397.000 0.531416
397.100 0.609761
397.200 0.723982
397.300 0.820944
397.400 0.918552
397.500 0.986425
397.600 1.050420
397.700 1.101487
397.800 1.139625
397.900 1.182288
398.000 1.204913
398.100 1.226891
398.200 1.244344
398.300 1.261797
398.400 1.283129
398.500 1.301228
398.600 1.316096
398.700 1.325792
398.800 1.344538
398.900 1.353588
399.000 1.360052
399.100 1.369101
399.200 1.374273
399.300 1.383969
399.400 1.388494
399.500 1.389140
399.600 1.380737
399.700 1.372980
399.800 1.373626
399.900 1.385262
400.000 1.391726
400.100 1.394958
400.200 1.394958
400.300 1.388494
400.400 1.381383
400.500 1.374273
400.600 1.377505
400.700 1.387201
400.800 1.400129
400.900 1.407240
401.000 1.410472
401.100 1.410472
401.200 1.410472
401.300 1.409825
401.400 1.410472
401.500 1.416290
401.600 1.423400
401.700 1.430511
401.800 1.438268
401.900 1.442146
402.000 1.443439
402.100 1.439560
402.200 1.433096
402.300 1.421461
402.400 1.407240
402.500 1.398190
402.600 1.398836
402.700 1.412411
402.800 1.420814
402.900 1.423400
403.000 1.417582
403.100 1.411765
403.200 1.410472
403.300 1.412411
403.400 1.418875
403.500 1.431803
403.600 1.444732
403.700 1.458306
403.800 1.459599
403.900 1.453782
404.000 1.447317
404.100 1.444085
404.200 1.444085
404.300 1.437621
404.400 1.416936
404.500 1.396251
404.600 1.389140
404.700 1.404008
404.800 1.424693
404.900 1.438268
405.000 1.440207
405.100 1.441500
405.200 1.438914
405.300 1.429218
405.400 1.420168
405.500 1.418875
405.600 1.420814
405.700 1.424693
405.800 1.426632
405.900 1.434389
406.000 1.438914
406.100 1.429864
406.200 1.407886
406.300 1.388494
406.400 1.376212
406.500 1.361991
406.600 1.363930
406.700 1.368455
406.800 1.369101
406.900 1.368455
407.000 1.358759
407.100 1.339367
407.200 1.330317
407.300 1.332256
407.400 1.339367
407.500 1.338720
407.600 1.320621
407.700 1.303814
407.800 1.295410
407.900 1.305107
408.000 1.320621
408.100 1.327085
408.200 1.324499
408.300 1.314156
408.400 1.302521
408.500 1.290239
408.600 1.283129
408.700 1.279897
408.800 1.274079
408.900 1.267615
409.000 1.249515
409.100 1.233355
409.200 1.216548
409.300 1.186813
409.400 1.159664
409.500 1.115708
409.600 1.073045
409.700 1.024564
409.800 0.958630
409.900 0.885585
410.000 0.784098
410.100 0.711700
410.200 0.691661
410.300 0.746606
410.400 0.833872
410.500 0.928895
410.600 0.988365
410.700 1.042017
410.800 1.080802
410.900 1.112476
411.000 1.146736
411.100 1.170006
411.200 1.198449
411.300 1.219134
411.400 1.241112
411.500 1.261151
411.600 1.274725
411.700 1.280543
411.800 1.279250
411.900 1.279250
412.000 1.283129
412.100 1.290886
412.200 1.299935
412.300 1.308985
412.400 1.319974
412.500 1.328378
412.600 1.328378
412.700 1.323853
412.800 1.319974
412.900 1.319974
413.000 1.318681
413.100 1.315449
413.200 1.313510
413.300 1.319974
413.400 1.336134
413.500 1.348416
413.600 1.357466
413.700 1.365869
413.800 1.374919
413.900 1.383323
414.000 1.382030
414.100 1.371041
414.200 1.354880
414.300 1.340013
414.400 1.338074
414.500 1.345831
414.600 1.359405
414.700 1.364577
414.800 1.365869
414.900 1.367162
415.000 1.371041
415.100 1.375566
415.200 1.373626
415.300 1.368455
415.400 1.362637
415.500 1.360052
