# Wavelength (nm)   F_lamA (normalized erg/cm2/s/A)9.100 0.000480
9.400 0.000552
9.600 0.000603
9.800 0.000656
10.000 0.000713
10.200 0.000771
10.400 0.000833
10.600 0.000898
10.800 0.000965
11.000 0.001036
11.400 0.001187
11.800 0.001353
12.100 0.001490
12.500 0.001690
12.700 0.001799
12.800 0.001857
13.100 0.002043
13.200 0.002108
13.400 0.002247
13.700 0.002477
14.000 0.002736
14.300 0.003030
14.700 0.003486
15.100 0.004031
15.500 0.004685
15.900 0.005470
16.200 0.006158
16.600 0.007229
17.000 0.008499
17.300 0.009600
17.700 0.011289
18.000 0.012744
18.200 0.013797
18.600 0.016165
19.100 0.019599
19.400 0.021955
19.800 0.025439
20.200 0.029361
20.500 0.032607
21.000 0.038596
21.600 0.046817
22.000 0.052945
22.300 0.057895
22.700 0.064975
23.000 1.951128
23.400 2.145363
24.000 2.758145
24.600 3.758145
25.200 4.585213
25.700 3.552632
26.000 5.061404
26.400 6.382206
26.900 6.493734
27.400 6.592732
27.900 6.339599
28.400 6.666667
29.000 6.632832
29.600 6.098997
30.100 4.234336
30.800 5.255639
31.800 6.535088
32.800 6.551378
33.800 6.421053
34.800 6.302005
35.700 6.390977
36.600 6.464912
37.500 6.355890
38.500 6.017544
39.500 6.169173
40.500 6.176692
41.400 6.092732
42.200 5.938596
43.000 5.838346
44.100 5.844612
45.100 5.746867
46.000 5.588972
47.000 5.489975
48.000 5.439850
49.000 5.266917
50.000 5.251880
50.600 5.647870
51.200 6.689223
52.000 6.558897
53.000 6.441103
54.000 6.102757
55.000 6.028822
56.000 6.187970
57.000 6.106516
58.000 5.916040
59.000 5.888471
60.000 5.715539
61.000 5.553885
62.000 5.610276
63.000 5.489975
64.000 5.432331
65.000 5.309524
65.800 5.176692
66.500 5.185464
67.500 5.129073
68.500 4.943609
69.500 4.952381
70.500 4.761905
71.600 4.788221
72.600 4.718045
73.500 4.654135
74.500 4.553885
75.500 4.471178
76.500 4.359649
77.500 4.320802
78.500 4.244361
79.500 4.180451
80.500 4.125313
81.500 4.066416
82.500 4.013784
83.500 3.845865
84.500 3.879699
85.500 3.810777
86.500 3.771930
87.500 3.715539
88.500 3.656642
89.500 3.598997
90.500 3.518797
91.500 3.758145
92.500 6.526316
93.500 9.120301
94.500 13.370927
95.500 15.250627
96.500 17.756892
97.500 10.793233
98.500 18.771930
99.500 18.483709
100.500 19.085213
101.500 16.992481
102.500 9.874687
103.500 15.588972
104.500 18.270677
105.500 18.458647
106.500 17.631579
107.500 17.919799
108.500 16.766917
109.500 17.468672
110.500 16.892231
111.500 16.591479
112.500 15.802005
113.500 15.952381
114.500 15.338346
115.500 15.125313
116.500 14.824561
117.500 13.258145
118.500 13.696742
119.500 12.581454
120.500 11.043860
121.500 6.741855
122.500 10.538847
123.500 11.819549
124.500 12.082707
125.500 12.176692
126.500 11.931078
127.500 12.057644
128.500 11.973684
129.500 11.547619
130.500 11.343358
131.500 11.459900
132.500 11.185464
133.500 10.894737
134.500 10.927318
135.500 10.730576
136.500 10.488722
137.500 10.324561
138.500 10.204261
139.500 9.730576
140.500 9.548872
141.500 9.682957
142.500 9.505013
143.500 9.354637
144.200 9.291980
144.700 9.213033
145.500 9.082707
146.500 8.902256
147.500 8.768170
148.500 8.630326
149.500 8.476190
150.500 8.330827
151.200 8.213033
151.700 8.171679
152.500 8.026316
153.500 7.781955
154.500 7.645363
155.500 7.481203
156.500 7.404762
157.500 7.372180
158.500 7.303258
159.500 7.233083
160.500 7.007519
161.500 6.908521
162.500 6.771930
163.500 6.669173
164.500 6.488722
165.500 6.458647
166.500 6.482456
167.200 6.296992
167.700 6.353383
168.500 6.307018
169.500 6.181704
170.500 6.065163
171.500 5.958647
172.500 5.869674
173.500 5.857143
174.500 5.740602
175.500 5.696742
176.500 5.525063
177.500 5.528822
178.500 5.447368
179.500 5.401003
180.500 5.339599
181.500 5.248120
182.500 5.176692
183.500 5.105263
184.500 4.979950
185.500 4.890977
186.500 4.845865
187.500 4.825815
188.500 4.716792
189.500 4.627820
190.500 4.620301
191.500 4.521303
192.500 4.458647
193.500 4.419799
194.500 4.411028
195.500 4.303258
196.700 4.290727
197.600 4.249373
198.400 4.185464
199.500 4.095238
200.500 4.072682
201.500 4.021303
202.500 3.983709
203.500 3.933584
204.500 3.890977
205.500 3.607769
206.500 3.642857
207.400 3.775689
207.800 3.739348
208.500 3.724311
209.500 3.662907
210.500 3.635338
211.500 3.606516
212.500 3.570175
213.500 3.507519
214.500 3.481203
215.500 3.448622
216.500 3.378446
217.500 3.350877
218.500 3.313283
219.500 3.308271
220.500 3.250627
221.500 3.186717
222.500 3.155388
223.500 3.159148
224.500 3.107769
225.500 3.045113
226.500 3.018797
227.500 3.007519
228.500 2.983709
229.500 2.918546
230.500 2.901003
231.500 2.877193
232.500 2.709273
233.500 2.803258
234.500 2.731830
235.500 2.751880
236.500 2.684211
237.500 2.682957
238.500 2.597744
239.500 2.619048
240.500 2.585213
241.500 2.563910
242.500 2.565163
243.500 2.523810
244.500 2.512531
245.500 2.489975
246.500 2.452381
247.500 2.423559
248.500 2.409774
249.500 2.350877
250.500 2.383459
251.300 2.313283
251.800 2.329574
252.500 2.294486
253.500 2.266917
254.500 2.251880
255.500 2.260652
256.500 2.234336
257.500 2.233083
258.500 2.215539
259.500 2.190476
260.500 2.159148
261.500 2.132832
262.500 2.127820
263.500 2.116541
264.500 2.140351
265.500 2.124060
266.500 2.085213
267.500 2.080201
268.500 2.072682
269.500 2.035088
270.500 2.026316
271.500 1.993734
272.500 1.971178
273.500 1.964912
274.500 1.912281
275.500 1.907268
276.500 1.909774
277.500 1.917293
278.500 1.893484
279.500 1.783208
280.500 1.805764
281.500 1.868421
282.500 1.848371
283.500 1.828321
284.500 1.812030
285.500 1.781955
286.500 1.789474
287.500 1.775689
288.500 1.768170
289.500 1.756892
291.000 1.750627
293.000 1.716792
295.000 1.685464
297.000 1.670426
299.000 1.649123
301.000 1.626566
303.000 1.601504
305.000 1.577694
307.000 1.551378
309.000 1.530075
311.000 1.505013
313.000 1.481203
315.000 1.461153
317.000 1.442356
319.000 1.408521
321.000 1.397243
323.000 1.374687
325.000 1.363409
327.000 1.352130
329.000 1.335840
331.000 1.319549
332.200 1.255639
332.300 1.261905
332.400 1.258145
332.500 1.253133
332.600 1.241103
332.700 1.226441
332.800 1.233333
332.900 1.243108
333.000 1.253133
333.100 1.258145
333.200 1.252256
333.300 1.239850
333.400 1.226441
333.500 1.221053
333.600 1.208772
333.700 1.195363
333.800 1.194236
333.900 1.199624
334.000 1.200627
334.100 1.206391
334.200 1.206767
334.300 1.227569
334.400 1.247118
334.500 1.252256
334.600 1.254386
334.700 1.245489
334.800 1.221303
334.900 1.190226
335.000 1.162155
335.100 1.168672
335.200 1.184461
335.300 1.193484
335.400 1.194361
335.500 1.192356
335.600 1.193985
335.700 1.195363
335.800 1.186466
335.900 1.173559
336.000 1.166917
336.100 1.163784
336.200 1.176692
336.300 1.182456
336.400 1.185338
336.500 1.173434
336.600 1.160652
336.700 1.152882
336.800 1.146867
336.900 1.148371
337.000 1.153885
337.100 1.152757
337.200 1.140602
337.300 1.141729
337.400 1.152632
337.500 1.177945
337.600 1.194987
337.700 1.180576
337.800 1.163784
337.900 1.152882
338.000 1.158772
338.100 1.172556
338.200 1.186216
338.300 1.198120
338.400 1.197995
338.500 1.199624
338.600 1.195865
338.700 1.185840
338.800 1.180702
338.900 1.187093
339.000 1.196617
339.100 1.205013
339.200 1.201754
339.300 1.191980
339.400 1.201504
339.500 1.212281
339.600 1.220927
339.700 1.218045
339.800 1.213534
339.900 1.192607
340.000 1.173434
340.100 1.172807
340.200 1.158772
340.300 1.156015
340.400 1.155764
340.500 1.160025
340.600 1.151504
340.700 1.146241
340.800 1.152005
340.900 1.159524
341.000 1.166792
341.100 1.154261
341.200 1.155263
341.300 1.168421
341.400 1.181955
341.500 1.185840
341.600 1.183333
341.700 1.181579
341.800 1.187469
341.900 1.195614
342.000 1.199248
342.100 1.198622
342.200 1.189599
342.300 1.180451
342.400 1.175439
342.500 1.175815
342.600 1.181454
342.700 1.187845
342.800 1.195614
342.900 1.201754
343.000 1.193985
343.100 1.186216
343.200 1.179950
343.300 1.180952
343.400 1.187970
343.500 1.194862
343.600 1.197870
343.700 1.195113
343.800 1.191980
343.900 1.182832
344.000 1.166792
344.100 1.150877
344.200 1.144361
344.300 1.146491
344.400 1.151253
344.500 1.156642
344.600 1.168421
344.700 1.180952
344.800 1.196867
344.900 1.208145
345.000 1.181078
345.100 1.147995
345.200 1.129198
345.300 1.122682
345.400 1.133835
345.500 1.136842
345.600 1.133459
345.700 1.132331
345.800 1.129073
345.900 1.130326
346.000 1.127444
346.100 1.125188
346.200 1.130576
346.300 1.147995
346.400 1.140852
346.500 1.136967
346.600 1.139975
346.700 1.144612
346.800 1.149123
346.900 1.153509
347.000 1.160401
347.100 1.156391
347.200 1.148496
347.300 1.137719
347.400 1.132456
347.500 1.126817
347.600 1.126692
347.700 1.125188
347.800 1.121805
347.900 1.121053
348.000 1.130451
348.100 1.135338
348.200 1.125815
348.300 1.115038
348.400 1.114912
348.500 1.134586
348.600 1.153258
348.700 1.160276
348.800 1.161278
348.900 1.151629
349.000 1.140727
349.100 1.141103
349.200 1.151378
349.300 1.153634
349.400 1.148120
349.500 1.137218
349.600 1.129198
349.700 1.133960
349.800 1.138722
349.900 1.139599
350.000 1.124687
350.100 1.114035
350.200 1.118797
350.300 1.121554
350.400 1.116917
350.500 1.107519
350.600 1.102882
350.700 1.104261
350.800 1.107769
350.900 1.109023
351.000 1.112030
351.100 1.114662
351.200 1.113534
351.300 1.105514
351.400 1.101253
351.500 1.108271
351.600 1.119173
351.700 1.124436
351.800 1.126692
351.900 1.122932
352.000 1.119799
352.100 1.115414
352.200 1.110276
352.300 1.109774
352.400 1.110652
352.500 1.108396
352.600 1.111529
352.700 1.113910
352.800 1.119424
352.900 1.127820
353.000 1.136842
353.100 1.143985
353.200 1.147368
353.300 1.139348
353.400 1.127193
353.500 1.121178
353.600 1.122556
353.700 1.121053
353.800 1.121805
353.900 1.126316
354.000 1.131454
354.100 1.131579
354.200 1.132456
354.300 1.135840
354.400 1.139474
354.500 1.140226
354.600 1.140100
354.700 1.140852
354.800 1.142732
354.900 1.139348
355.000 1.137970
355.100 1.143609
355.200 1.145238
355.300 1.139975
355.400 1.130952
355.500 1.127945
355.600 1.132080
355.700 1.140852
355.800 1.143358
355.900 1.138972
356.000 1.133208
356.100 1.134712
356.200 1.137594
356.300 1.132707
356.400 1.121554
356.500 1.114411
356.600 1.113534
356.700 1.112406
356.800 1.112907
356.900 1.107769
357.000 1.097995
357.100 1.077444
357.200 1.065539
357.300 1.062406
357.400 1.063283
357.500 1.068797
357.600 1.076692
357.700 1.078947
357.800 1.078446
357.900 1.074311
358.000 1.072431
358.100 1.070301
358.200 1.066917
358.300 1.067419
358.400 1.064411
358.500 1.055890
358.600 1.045113
358.700 1.040100
358.800 1.041228
358.900 1.051504
359.000 1.063033
359.100 1.066040
359.200 1.063659
359.300 1.064286
359.400 1.066792
359.500 1.072556
359.600 1.076441
359.700 1.079073
359.800 1.083083
359.900 1.087970
360.000 1.091228
360.100 1.085338
360.200 1.081328
360.300 1.074561
360.400 1.071429
360.500 1.072807
360.600 1.075564
360.700 1.074812
360.800 1.075439
360.900 1.079950
361.000 1.082206
361.100 1.079950
361.200 1.079073
361.300 1.077444
361.400 1.078321
361.500 1.083960
361.600 1.088221
361.700 1.089850
361.800 1.088346
361.900 1.086842
362.000 1.086591
362.100 1.088972
362.200 1.098246
362.300 1.102381
362.400 1.101378
362.500 1.107769
362.600 1.118045
362.700 1.126692
362.800 1.122932
362.900 1.111028
363.000 1.097870
363.100 1.089348
363.200 1.091228
363.300 1.102882
363.400 1.115414
363.500 1.113534
363.600 1.095614
363.700 1.086216
363.800 1.088596
363.900 1.093860
364.000 1.096241
364.100 1.094236
364.200 1.089474
364.300 1.081830
364.400 1.075564
364.500 1.076190
364.600 1.072932
364.700 1.073058
364.800 1.075188
364.900 1.074436
365.000 1.074687
365.100 1.075564
365.200 1.080075
365.300 1.083584
365.400 1.086842
365.500 1.090226
365.600 1.095113
365.700 1.094737
365.800 1.092982
365.900 1.090977
366.000 1.084336
366.100 1.079449
366.200 1.075689
366.300 1.078195
366.400 1.081454
366.500 1.082331
366.600 1.081328
366.700 1.076441
366.800 1.072055
366.900 1.071554
367.000 1.074436
367.100 1.077318
367.200 1.082456
367.300 1.081830
367.400 1.076817
367.500 1.068170
367.600 1.059774
367.700 1.054762
367.800 1.052256
367.900 1.054511
368.000 1.058897
368.100 1.064160
368.200 1.062030
368.300 1.058521
368.400 1.055388
368.500 1.048747
368.600 1.042481
368.700 1.043108
368.800 1.061278
368.900 1.083083
369.000 1.082331
369.100 1.064662
369.200 1.063784
369.300 1.078697
369.400 1.095363
369.500 1.095489
369.600 1.070050
369.700 1.053509
369.800 1.061153
369.900 1.099373
370.000 1.142481
370.100 1.144737
370.200 1.104135
370.300 1.035464
370.400 1.000501
370.500 1.002882
370.600 1.048371
370.700 1.097995
370.800 1.133083
370.900 1.116416
371.000 1.064286
371.100 1.013409
371.200 0.984085
371.300 1.005514
371.400 1.066291
371.500 1.152381
371.600 1.207393
371.700 1.237719
371.800 1.224812
371.900 1.161404
372.000 1.055890
372.100 0.984586
372.200 0.946992
372.300 0.979323
372.400 1.061153
372.500 1.156516
372.600 1.215915
372.700 1.270677
372.800 1.293233
372.900 1.298246
373.000 1.275689
373.100 1.212155
373.200 1.103759
373.300 1.008521
373.400 0.925564
373.500 0.910401
373.600 0.960276
373.700 1.062155
373.800 1.159774
373.900 1.274436
374.000 1.338346
374.100 1.383459
374.200 1.395990
374.300 1.384712
374.400 1.357143
374.500 1.313283
374.600 1.244737
374.700 1.158521
374.800 1.060401
374.900 0.953383
375.000 0.910150
375.100 0.922556
375.200 0.995865
375.300 1.104762
375.400 1.218045
375.500 1.291980
375.600 1.357143
375.700 1.380952
375.800 1.393484
375.900 1.397243
376.000 1.397243
376.100 1.401003
376.200 1.413534
376.300 1.406015
376.400 1.384712
376.500 1.338346
376.600 1.274436
376.700 1.200877
376.800 1.090476
376.900 0.985965
377.000 0.901253
377.100 0.875063
377.200 0.932456
377.300 1.040476
377.400 1.133960
377.500 1.230201
377.600 1.305764
377.700 1.372180
377.800 1.439850
377.900 1.483709
378.000 1.530075
378.100 1.555138
378.200 1.573935
378.300 1.580201
378.400 1.582707
378.500 1.581454
378.600 1.572682
378.700 1.552632
378.800 1.532581
378.900 1.506266
379.000 1.472431
379.100 1.433584
379.200 1.374687
379.300 1.309524
379.400 1.226316
379.500 1.113033
379.600 1.007519
379.700 0.899248
379.800 0.851128
379.900 0.880576
380.000 0.981955
380.100 1.093985
380.200 1.216541
380.300 1.293233
380.400 1.369674
380.500 1.424812
380.600 1.464912
380.700 1.508772
380.800 1.542607
380.900 1.581454
381.000 1.610276
381.100 1.627820
381.200 1.625313
381.300 1.615288
381.400 1.605263
381.500 1.607769
381.600 1.612782
381.700 1.617794
381.800 1.610276
381.900 1.585213
382.000 1.565163
382.100 1.555138
382.200 1.563910
382.300 1.561404
382.400 1.536341
382.500 1.505013
382.600 1.466165
382.700 1.434837
382.800 1.389724
382.900 1.335840
383.000 1.279449
383.100 1.198747
383.200 1.116541
383.300 1.003509
383.400 0.886341
383.500 0.826566
383.600 0.819674
383.700 0.880075
383.800 0.978697
383.900 1.081830
384.000 1.173434
384.100 1.270677
384.200 1.340852
384.300 1.417293
384.400 1.466165
384.500 1.511278
384.600 1.548872
384.700 1.575188
384.800 1.597744
384.900 1.610276
385.000 1.621554
385.100 1.641604
385.200 1.659148
385.300 1.671679
385.400 1.671679
385.500 1.665414
385.600 1.659148
385.700 1.657895
385.800 1.667920
385.900 1.680451
386.000 1.691729
386.100 1.697995
386.200 1.689223
386.300 1.666667
386.400 1.659148
386.500 1.657895
386.600 1.661654
386.700 1.669173
386.800 1.674185
386.900 1.672932
387.000 1.659148
387.100 1.641604
387.200 1.616541
387.300 1.602757
387.400 1.598997
387.500 1.597744
387.600 1.585213
387.700 1.553885
387.800 1.527569
387.900 1.498747
388.000 1.476190
388.100 1.446115
388.200 1.394737
388.300 1.343358
388.400 1.271930
388.500 1.190100
388.600 1.088471
388.700 0.959023
388.800 0.863033
388.900 0.814035
389.000 0.846742
389.100 0.942732
389.200 1.063659
389.300 1.155764
389.400 1.244737
389.500 1.304511
389.600 1.368421
389.700 1.421053
389.800 1.458647
389.900 1.489975
390.000 1.511278
390.100 1.545113
390.200 1.576441
390.300 1.601504
390.400 1.614035
390.500 1.620301
390.600 1.630326
390.700 1.649123
390.800 1.677945
390.900 1.705514
391.000 1.718045
391.100 1.723058
391.200 1.718045
391.300 1.705514
391.400 1.695489
391.500 1.699248
391.600 1.711779
391.700 1.718045
391.800 1.716792
391.900 1.710526
392.000 1.710526
392.100 1.713033
392.200 1.710526
392.300 1.708020
392.400 1.705514
392.500 1.708020
392.600 1.701754
392.700 1.691729
392.800 1.670426
392.900 1.646617
393.000 1.616541
393.100 1.556391
393.200 1.454887
393.300 1.340852
393.400 1.324561
393.500 1.399749
393.600 1.505013
393.700 1.586466
393.800 1.641604
393.900 1.669173
394.000 1.686717
394.100 1.699248
394.200 1.701754
394.300 1.695489
394.400 1.686717
394.500 1.672932
394.600 1.665414
394.700 1.662907
394.800 1.657895
394.900 1.650376
395.000 1.641604
395.100 1.631579
395.200 1.620301
395.300 1.616541
395.400 1.609023
395.500 1.591479
395.600 1.570175
395.700 1.546366
395.800 1.530075
395.900 1.508772
396.000 1.474937
396.100 1.434837
396.200 1.380952
396.300 1.333333
396.400 1.266917
396.500 1.184336
396.600 1.077318
396.700 0.921679
396.800 0.788722
396.900 0.697870
397.000 0.687719
397.100 0.752381
397.200 0.868296
397.300 0.980326
397.400 1.097368
397.500 1.181955
397.600 1.260652
397.700 1.324561
397.800 1.368421
397.900 1.421053
398.000 1.452381
398.100 1.484962
398.200 1.508772
398.300 1.528822
398.400 1.552632
398.500 1.572682
398.600 1.586466
398.700 1.592732
398.800 1.615288
398.900 1.626566
399.000 1.636591
399.100 1.646617
399.200 1.652882
399.300 1.660401
399.400 1.665414
399.500 1.669173
399.600 1.666667
399.700 1.662907
399.800 1.661654
399.900 1.669173
400.000 1.669173
400.100 1.665414
400.200 1.665414
400.300 1.660401
400.400 1.657895
400.500 1.656642
400.600 1.659148
400.700 1.664160
400.800 1.670426
400.900 1.674185
401.000 1.675439
401.100 1.676692
401.200 1.679198
401.300 1.681704
401.400 1.681704
401.500 1.685464
401.600 1.694236
401.700 1.703008
401.800 1.711779
401.900 1.715539
402.000 1.714286
402.100 1.710526
402.200 1.701754
402.300 1.685464
402.400 1.661654
402.500 1.644110
402.600 1.639098
402.700 1.652882
402.800 1.669173
402.900 1.681704
403.000 1.689223
403.100 1.690476
403.200 1.692982
403.300 1.694236
403.400 1.697995
403.500 1.708020
403.600 1.716792
403.700 1.723058
403.800 1.724311
403.900 1.718045
404.000 1.714286
404.100 1.713033
404.200 1.711779
404.300 1.706767
404.400 1.691729
404.500 1.675439
404.600 1.667920
404.700 1.677945
404.800 1.692982
404.900 1.703008
405.000 1.704261
405.100 1.705514
405.200 1.703008
405.300 1.692982
405.400 1.685464
405.500 1.686717
405.600 1.689223
405.700 1.694236
405.800 1.695489
405.900 1.699248
406.000 1.700501
406.100 1.690476
406.200 1.675439
406.300 1.660401
406.400 1.646617
406.500 1.620301
406.600 1.619048
406.700 1.622807
406.800 1.622807
406.900 1.622807
407.000 1.612782
407.100 1.595238
407.200 1.586466
407.300 1.583960
407.400 1.588972
407.500 1.588972
407.600 1.573935
407.700 1.560150
407.800 1.552632
407.900 1.558897
408.000 1.568922
408.100 1.570175
408.200 1.566416
408.300 1.556391
408.400 1.543860
408.500 1.530075
408.600 1.517544
408.700 1.510025
408.800 1.498747
408.900 1.487469
409.000 1.464912
409.100 1.442356
409.200 1.418546
409.300 1.380952
409.400 1.345865
409.500 1.290727
409.600 1.235213
409.700 1.172431
409.800 1.088596
409.900 0.998872
410.000 0.884962
410.100 0.800000
410.200 0.773308
410.300 0.825564
410.400 0.923810
410.500 1.037719
410.600 1.115664
410.700 1.186466
410.800 1.241228
410.900 1.284461
411.000 1.328321
411.100 1.360902
411.200 1.395990
411.300 1.422306
411.400 1.447368
411.500 1.472431
411.600 1.489975
411.700 1.501253
411.800 1.502506
411.900 1.506266
412.000 1.510025
412.100 1.516291
412.200 1.523810
412.300 1.533835
412.400 1.547619
412.500 1.558897
412.600 1.556391
412.700 1.547619
412.800 1.538847
412.900 1.535088
413.000 1.535088
413.100 1.537594
413.200 1.543860
413.300 1.553885
413.400 1.571429
413.500 1.581454
413.600 1.588972
413.700 1.596491
413.800 1.604010
413.900 1.610276
414.000 1.609023
414.100 1.601504
414.200 1.587719
414.300 1.573935
414.400 1.570175
414.500 1.577694
414.600 1.588972
414.700 1.595238
414.800 1.596491
414.900 1.596491
415.000 1.600251
415.100 1.606516
415.200 1.606516
