# Wavelength (nm)   F_lamA (normalized erg/cm2/s/A)9.100 0.001402
9.400 0.001570
9.600 0.001685
9.800 0.001801
10.000 0.001918
10.200 0.002038
10.400 0.002159
10.600 0.002282
10.800 0.002408
11.000 0.002536
11.400 0.002803
11.800 0.003088
12.100 0.003320
12.500 0.003659
12.700 0.003845
12.800 0.003941
13.100 0.004257
13.200 0.004370
13.400 0.004611
13.700 0.005010
14.000 0.005464
14.300 0.005979
14.700 0.006782
15.100 0.007738
15.500 0.008874
15.900 0.010220
16.200 0.011383
16.600 0.013163
17.000 0.015234
17.300 0.016998
17.700 0.019655
18.000 0.021883
18.200 0.023515
18.600 0.027050
19.100 0.032113
19.400 0.035502
19.800 0.040439
20.200 0.045900
20.500 0.050356
21.000 0.058452
21.600 0.069351
22.000 0.077343
22.300 0.083703
22.700 0.092741
23.000 2.179916
23.400 2.439331
24.000 3.133891
24.600 4.230126
25.200 5.322176
25.700 4.234310
26.000 5.907950
26.400 7.453975
26.900 7.684100
27.400 7.841004
27.900 7.349372
28.400 8.075314
29.000 8.071130
29.600 7.299163
30.100 4.771967
30.800 5.889121
31.800 7.569038
32.800 7.589958
33.800 7.380753
34.800 7.196653
35.700 7.422594
36.600 7.740586
37.500 7.594142
38.500 7.033473
39.500 7.395397
40.500 7.514644
41.400 7.424686
42.200 7.198745
43.000 7.031381
44.100 7.152720
45.100 7.062762
46.000 6.820084
47.000 6.702929
48.000 6.694561
49.000 6.428870
50.000 6.495816
50.600 7.056485
51.200 8.866109
52.000 8.629707
53.000 8.399582
54.000 7.828452
55.000 7.719665
56.000 8.182008
57.000 8.110879
58.000 7.826360
59.000 7.822176
60.000 7.527197
61.000 7.315900
62.000 7.546025
63.000 7.359833
64.000 7.328452
65.000 7.152720
65.800 6.945607
66.500 7.012552
67.500 6.974895
68.500 6.661088
69.500 6.746862
70.500 6.414226
71.600 6.566946
72.600 6.485356
73.500 6.414226
74.500 6.267782
75.500 6.154812
76.500 5.976987
77.500 5.960251
78.500 5.861925
79.500 5.792887
80.500 5.728033
81.500 5.663180
82.500 5.602510
83.500 5.294979
84.500 5.426778
85.500 5.332636
86.500 5.299163
87.500 5.230126
88.500 5.154812
89.500 5.079498
90.500 4.968619
91.500 5.129707
92.500 9.744770
93.500 13.815900
94.500 19.914226
95.500 22.803347
96.500 26.422594
97.500 15.512552
98.500 27.615063
99.500 26.903766
100.500 28.075314
101.500 25.292887
102.500 14.882845
103.500 22.970711
104.500 27.468619
105.500 27.468619
106.500 25.794979
107.500 26.380753
108.500 24.456067
109.500 25.753138
110.500 24.748954
111.500 24.330544
112.500 23.075314
113.500 23.556485
114.500 22.573222
115.500 22.384937
116.500 22.092050
117.500 19.462343
118.500 20.635983
119.500 18.880753
120.500 16.512552
121.500 10.165272
122.500 15.887029
123.500 18.035565
124.500 18.397490
125.500 18.351464
126.500 17.826360
127.500 18.087866
128.500 17.916318
129.500 17.066946
130.500 16.765690
131.500 17.035565
132.500 16.558577
133.500 16.039749
134.500 16.142259
135.500 15.849372
136.500 15.405858
137.500 15.161088
138.500 15.002092
139.500 14.085774
140.500 13.805439
141.500 14.202929
142.500 13.893305
143.500 13.732218
144.200 13.646444
144.700 13.529289
145.500 13.305439
146.500 13.025105
147.500 12.820084
148.500 12.623431
149.500 12.393305
150.500 12.142259
151.200 11.907950
151.700 11.882845
152.500 11.671548
153.500 11.198745
154.500 10.960251
155.500 10.707113
156.500 10.696653
157.500 10.690377
158.500 10.600418
159.500 10.504184
160.500 10.135983
161.500 9.979079
162.500 9.797071
163.500 9.682008
164.500 9.410042
165.500 9.376569
166.500 9.403766
167.200 9.102510
167.700 9.246862
168.500 9.165272
169.500 8.970711
170.500 8.778243
171.500 8.581590
172.500 8.453975
173.500 8.464435
174.500 8.288703
175.500 8.234310
176.500 7.960251
177.500 7.970711
178.500 7.866109
179.500 7.801255
180.500 7.707113
181.500 7.543933
182.500 7.456067
183.500 7.343096
184.500 7.121339
185.500 6.987448
186.500 6.933054
187.500 6.924686
188.500 6.713389
189.500 6.558577
190.500 6.598326
191.500 6.430962
192.500 6.315900
193.500 6.301255
194.500 6.294979
195.500 6.096234
196.700 6.110879
197.600 6.081590
198.400 5.953975
199.500 5.809623
200.500 5.797071
201.500 5.730126
202.500 5.694561
203.500 5.585774
204.500 5.523013
205.500 5.064854
206.500 5.156904
207.400 5.372385
207.800 5.299163
208.500 5.282427
209.500 5.177824
210.500 5.154812
211.500 5.112971
212.500 5.069038
213.500 4.974895
214.500 4.920502
215.500 4.887029
216.500 4.784519
217.500 4.742678
218.500 4.677824
219.500 4.671548
220.500 4.587866
221.500 4.495816
222.500 4.441423
223.500 4.439331
224.500 4.366109
225.500 4.276151
226.500 4.251046
227.500 4.221757
228.500 4.186192
229.500 4.085774
230.500 4.054393
231.500 4.016736
232.500 3.761506
233.500 3.907950
234.500 3.815900
235.500 3.826360
236.500 3.740586
237.500 3.728033
238.500 3.617155
239.500 3.638075
240.500 3.585774
241.500 3.552301
242.500 3.543933
243.500 3.481172
244.500 3.462343
245.500 3.428870
246.500 3.376569
247.500 3.334728
248.500 3.320084
249.500 3.213389
250.500 3.265690
251.300 3.161088
251.800 3.198745
252.500 3.152720
253.500 3.110879
254.500 3.081590
255.500 3.085774
256.500 3.046025
257.500 3.037657
258.500 3.010460
259.500 2.974895
260.500 2.933054
261.500 2.897490
262.500 2.880753
263.500 2.857741
264.500 2.878661
265.500 2.851464
266.500 2.801255
267.500 2.788703
268.500 2.771967
269.500 2.723849
270.500 2.709205
271.500 2.667364
272.500 2.631799
273.500 2.617155
274.500 2.556485
275.500 2.541841
276.500 2.533473
277.500 2.537657
278.500 2.506276
279.500 2.397490
280.500 2.414226
281.500 2.453975
282.500 2.424686
283.500 2.395397
284.500 2.374477
285.500 2.345188
286.500 2.343096
287.500 2.320084
288.500 2.303347
289.500 2.284519
291.000 2.269874
293.000 2.219665
295.000 2.175732
297.000 2.148536
299.000 2.112971
301.000 2.080335
303.000 2.043515
305.000 2.007741
307.000 1.970293
309.000 1.937029
311.000 1.902510
313.000 1.867573
315.000 1.837029
317.000 1.808159
319.000 1.762971
321.000 1.743724
323.000 1.714644
325.000 1.693933
327.000 1.672803
329.000 1.646444
331.000 1.622803
332.200 1.597071
332.300 1.607531
332.400 1.601464
332.500 1.594351
332.600 1.582008
332.700 1.567992
332.800 1.568619
332.900 1.573222
333.000 1.579079
333.100 1.583264
333.200 1.578870
333.300 1.569874
333.400 1.557741
333.500 1.549163
333.600 1.537448
333.700 1.524895
333.800 1.520711
333.900 1.520502
334.000 1.514435
334.100 1.520711
334.200 1.525105
334.300 1.550209
334.400 1.572176
334.500 1.582636
334.600 1.591423
334.700 1.590586
334.800 1.566527
334.900 1.528870
335.000 1.482008
335.100 1.480962
335.200 1.503138
335.300 1.516109
335.400 1.515272
335.500 1.501674
335.600 1.498536
335.700 1.503766
335.800 1.502720
335.900 1.497490
336.000 1.493515
336.100 1.487657
336.200 1.497490
336.300 1.499582
336.400 1.500209
336.500 1.487657
336.600 1.472803
336.700 1.461297
336.800 1.455858
336.900 1.461715
337.000 1.476987
337.100 1.478452
337.200 1.459414
337.300 1.454603
337.400 1.463389
337.500 1.489540
337.600 1.504184
337.700 1.486611
337.800 1.472176
337.900 1.464854
338.000 1.475314
338.100 1.491841
338.200 1.506695
338.300 1.516736
338.400 1.513598
338.500 1.515272
338.600 1.513598
338.700 1.507531
338.800 1.504603
338.900 1.504393
339.000 1.510669
339.100 1.518828
339.200 1.520711
339.300 1.517573
339.400 1.525314
339.500 1.530544
339.600 1.535146
339.700 1.527197
339.800 1.516736
339.900 1.485774
340.000 1.460042
340.100 1.463389
340.200 1.452510
340.300 1.450837
340.400 1.451464
340.500 1.455858
340.600 1.447280
340.700 1.447490
340.800 1.458368
340.900 1.463808
341.000 1.466109
341.100 1.451046
341.200 1.455230
341.300 1.471967
341.400 1.486611
341.500 1.488285
341.600 1.485146
341.700 1.484519
341.800 1.492259
341.900 1.500000
342.000 1.500209
342.100 1.496862
342.200 1.487866
342.300 1.485146
342.400 1.484519
342.500 1.481590
342.600 1.485774
342.700 1.490377
342.800 1.497908
342.900 1.503556
343.000 1.491423
343.100 1.485565
343.200 1.481172
343.300 1.483473
343.400 1.489540
343.500 1.493096
343.600 1.496234
343.700 1.494561
343.800 1.491841
343.900 1.482636
344.000 1.462971
344.100 1.446653
344.200 1.441213
344.300 1.445188
344.400 1.448745
344.500 1.450837
344.600 1.460460
344.700 1.471130
344.800 1.488285
344.900 1.499582
345.000 1.466318
345.100 1.429498
345.200 1.412343
345.300 1.406485
345.400 1.414644
345.500 1.415063
345.600 1.414644
345.700 1.415900
345.800 1.410460
345.900 1.408368
346.000 1.403766
346.100 1.401674
346.200 1.408368
346.300 1.432427
346.400 1.424059
346.500 1.421339
346.600 1.423222
346.700 1.425105
346.800 1.423013
346.900 1.424686
347.000 1.434519
347.100 1.431590
347.200 1.424686
347.300 1.415690
347.400 1.412762
347.500 1.407741
347.600 1.406904
347.700 1.399372
347.800 1.387448
347.900 1.380335
348.000 1.388912
348.100 1.399372
348.200 1.392050
348.300 1.380544
348.400 1.381381
348.500 1.403347
348.600 1.421548
348.700 1.430126
348.800 1.436192
348.900 1.430335
349.000 1.419874
349.100 1.417364
349.200 1.427824
349.300 1.430962
349.400 1.423431
349.500 1.409623
349.600 1.401255
349.700 1.407322
349.800 1.416736
349.900 1.416318
350.000 1.394142
350.100 1.381381
350.200 1.388285
350.300 1.391632
350.400 1.382845
350.500 1.368619
350.600 1.361925
350.700 1.364435
350.800 1.371967
350.900 1.376987
351.000 1.382427
351.100 1.383682
351.200 1.379289
351.300 1.367992
351.400 1.363180
351.500 1.370293
351.600 1.380126
351.700 1.384310
351.800 1.388075
351.900 1.387866
352.000 1.387238
352.100 1.382636
352.200 1.376778
352.300 1.378033
352.400 1.382427
352.500 1.380126
352.600 1.381799
352.700 1.381590
352.800 1.384728
352.900 1.392259
353.000 1.399582
353.100 1.405230
353.200 1.411297
353.300 1.404393
353.400 1.389749
353.500 1.383891
353.600 1.383891
353.700 1.380962
353.800 1.383473
353.900 1.386192
354.000 1.390795
354.100 1.392050
354.200 1.392050
354.300 1.394142
354.400 1.398117
354.500 1.399163
354.600 1.399163
354.700 1.402301
354.800 1.405649
354.900 1.402929
355.000 1.398536
355.100 1.398536
355.200 1.401464
355.300 1.400209
355.400 1.391841
355.500 1.387657
355.600 1.389540
355.700 1.396444
355.800 1.398536
355.900 1.393724
356.000 1.386611
356.100 1.390795
356.200 1.396862
356.300 1.394142
356.400 1.383054
356.500 1.371967
356.600 1.369874
356.700 1.368410
356.800 1.374268
356.900 1.370921
357.000 1.356695
357.100 1.328870
357.200 1.312134
357.300 1.310460
357.400 1.310669
357.500 1.312971
357.600 1.320293
357.700 1.321130
357.800 1.317782
357.900 1.313389
358.000 1.314017
358.100 1.315481
358.200 1.313598
358.300 1.310879
358.400 1.307741
358.500 1.301883
358.600 1.293724
358.700 1.288494
358.800 1.285774
358.900 1.293724
359.000 1.304812
359.100 1.307950
359.200 1.304812
359.300 1.304603
359.400 1.305858
359.500 1.308996
359.600 1.311715
359.700 1.315481
359.800 1.319456
359.900 1.321967
360.000 1.324895
360.100 1.319874
360.200 1.320711
360.300 1.316527
360.400 1.312343
360.500 1.312134
360.600 1.314435
360.700 1.315690
360.800 1.317782
360.900 1.321967
361.000 1.324477
361.100 1.321130
361.200 1.318828
361.300 1.315063
361.400 1.313598
361.500 1.315272
361.600 1.320711
361.700 1.325732
361.800 1.330962
361.900 1.334100
362.000 1.329289
362.100 1.328661
362.200 1.339958
362.300 1.345397
362.400 1.342678
362.500 1.345188
362.600 1.352510
362.700 1.360251
362.800 1.359623
362.900 1.349791
363.000 1.340167
363.100 1.334728
363.200 1.333264
363.300 1.339331
363.400 1.352301
363.500 1.350837
363.600 1.327615
363.700 1.315690
363.800 1.317992
363.900 1.321967
364.000 1.323640
364.100 1.323849
364.200 1.321757
364.300 1.315063
364.400 1.308996
364.500 1.310460
364.600 1.306067
364.700 1.305439
364.800 1.307113
364.900 1.307950
365.000 1.310042
365.100 1.309414
365.200 1.310460
365.300 1.313180
365.400 1.314226
365.500 1.314017
365.600 1.316527
365.700 1.315063
365.800 1.313598
365.900 1.310669
366.000 1.302301
366.100 1.298326
366.200 1.294561
366.300 1.298745
366.400 1.302720
366.500 1.300837
366.600 1.299163
366.700 1.293305
366.800 1.289958
366.900 1.292678
367.000 1.296862
367.100 1.298326
367.200 1.299163
367.300 1.295397
367.400 1.291004
367.500 1.282218
367.600 1.276151
367.700 1.271339
367.800 1.268410
367.900 1.271130
368.000 1.275314
368.100 1.282636
368.200 1.280544
368.300 1.276569
368.400 1.275732
368.500 1.270502
368.600 1.259414
368.700 1.258996
368.800 1.278033
368.900 1.303138
369.000 1.304184
369.100 1.280753
369.200 1.279289
369.300 1.296862
369.400 1.319456
369.500 1.320084
369.600 1.285565
369.700 1.265690
369.800 1.270711
369.900 1.314854
370.000 1.364854
370.100 1.371548
370.200 1.330544
370.300 1.248117
370.400 1.206067
370.500 1.202929
370.600 1.259833
370.700 1.321339
370.800 1.371548
370.900 1.352720
371.000 1.288703
371.100 1.222176
371.200 1.182636
371.300 1.204184
371.400 1.270711
371.500 1.378870
371.600 1.444561
371.700 1.482008
371.800 1.471130
371.900 1.402929
372.000 1.276778
372.100 1.198326
372.200 1.149582
372.300 1.183682
372.400 1.271130
372.500 1.387238
372.600 1.453766
372.700 1.521130
372.800 1.548536
372.900 1.554184
373.000 1.529498
373.100 1.458577
373.200 1.331172
373.300 1.223849
373.400 1.128033
373.500 1.109833
373.600 1.164854
373.700 1.288703
373.800 1.396025
373.900 1.526151
374.000 1.596653
374.100 1.645397
374.200 1.660042
374.300 1.649791
374.400 1.621967
374.500 1.576569
374.600 1.496653
374.700 1.390167
374.800 1.276778
374.900 1.141632
375.000 1.092678
375.100 1.110879
375.200 1.202510
375.300 1.317782
375.400 1.448536
375.500 1.527615
375.600 1.603766
375.700 1.631590
375.800 1.643515
375.900 1.641004
376.000 1.634100
376.100 1.634728
376.200 1.654812
376.300 1.652720
376.400 1.631590
376.500 1.582218
376.600 1.507531
376.700 1.429289
376.800 1.307950
376.900 1.181799
377.000 1.084310
377.100 1.045607
377.200 1.110042
377.300 1.237657
377.400 1.349372
377.500 1.458787
377.600 1.545607
377.700 1.613808
377.800 1.682636
377.900 1.725314
378.000 1.768410
378.100 1.791213
378.200 1.807741
378.300 1.811088
378.400 1.812552
378.500 1.814017
378.600 1.805858
378.700 1.789331
378.800 1.771757
378.900 1.747490
379.000 1.712134
379.100 1.672176
379.200 1.611506
379.300 1.540586
379.400 1.453556
379.500 1.322385
379.600 1.200418
379.700 1.074477
379.800 1.015063
379.900 1.049163
380.000 1.172803
380.100 1.296444
380.200 1.432427
380.300 1.519874
380.400 1.598326
380.500 1.657113
380.600 1.693096
380.700 1.733891
380.800 1.767573
380.900 1.804812
381.000 1.834728
381.100 1.852301
381.200 1.847699
381.300 1.833891
381.400 1.820293
381.500 1.822594
381.600 1.823431
381.700 1.819038
381.800 1.803975
381.900 1.774268
382.000 1.753975
382.100 1.750628
382.200 1.771339
382.300 1.775732
382.400 1.757741
382.500 1.728452
382.600 1.689540
382.700 1.661715
382.800 1.621757
382.900 1.565900
383.000 1.506485
383.100 1.420084
383.200 1.327615
383.300 1.203766
383.400 1.056904
383.500 0.988912
383.600 0.979079
383.700 1.052720
383.800 1.168828
383.900 1.294142
384.000 1.391632
384.100 1.496653
384.200 1.566527
384.300 1.641423
384.400 1.689958
384.500 1.732218
384.600 1.765063
384.700 1.787448
384.800 1.804603
384.900 1.814017
385.000 1.824268
385.100 1.843515
385.200 1.856485
385.300 1.860669
385.400 1.854393
385.500 1.845816
385.600 1.838912
385.700 1.842259
385.800 1.857950
385.900 1.874686
386.000 1.883473
386.100 1.882218
386.200 1.866946
386.300 1.834310
386.400 1.830335
386.500 1.832845
386.600 1.836611
386.700 1.845607
386.800 1.851046
386.900 1.850628
387.000 1.839749
387.100 1.821339
387.200 1.798954
387.300 1.790377
387.400 1.792887
387.500 1.796444
387.600 1.783682
387.700 1.756904
387.800 1.733682
387.900 1.708577
388.000 1.687448
388.100 1.654812
388.200 1.601464
388.300 1.548745
388.400 1.478243
388.500 1.387657
388.600 1.278243
388.700 1.128870
388.800 1.015063
388.900 0.954812
389.000 0.990377
389.100 1.098326
389.200 1.245397
389.300 1.352301
389.400 1.451046
389.500 1.517992
389.600 1.581172
389.700 1.635356
389.800 1.668201
389.900 1.695397
390.000 1.715272
390.100 1.743096
390.200 1.774268
390.300 1.796653
390.400 1.807531
390.500 1.810460
390.600 1.813808
390.700 1.830126
390.800 1.858159
390.900 1.884728
391.000 1.894561
391.100 1.899163
391.200 1.893305
391.300 1.878243
391.400 1.866318
391.500 1.869038
391.600 1.881799
391.700 1.888912
391.800 1.888703
391.900 1.879498
392.000 1.878452
392.100 1.879707
392.200 1.875941
392.300 1.868201
392.400 1.864435
392.500 1.868410
392.600 1.862762
392.700 1.858577
392.800 1.844979
392.900 1.829707
393.000 1.811715
393.100 1.761925
393.200 1.666318
393.300 1.543724
393.400 1.515900
393.500 1.584728
393.600 1.697490
393.700 1.774477
393.800 1.821757
393.900 1.846025
394.000 1.864644
394.100 1.876360
394.200 1.877615
394.300 1.866736
394.400 1.853975
394.500 1.837657
394.600 1.829498
394.700 1.830126
394.800 1.828452
394.900 1.822803
395.000 1.813808
395.100 1.802720
395.200 1.792469
395.300 1.788703
395.400 1.784519
395.500 1.768619
395.600 1.748954
395.700 1.727824
395.800 1.714226
395.900 1.696234
396.000 1.663180
396.100 1.625314
396.200 1.573849
396.300 1.526987
396.400 1.461925
396.500 1.378870
396.600 1.274477
396.700 1.108996
396.800 0.956485
396.900 0.848954
397.000 0.825732
397.100 0.890377
397.200 1.019456
397.300 1.144142
397.400 1.273222
397.500 1.367155
397.600 1.446653
397.700 1.512552
397.800 1.551883
397.900 1.599372
398.000 1.630126
398.100 1.658787
398.200 1.680753
398.300 1.697908
398.400 1.720293
398.500 1.739121
398.600 1.748745
398.700 1.748536
398.800 1.769038
398.900 1.779498
399.000 1.790586
399.100 1.799372
399.200 1.803138
399.300 1.808368
399.400 1.810042
399.500 1.814017
399.600 1.810879
399.700 1.809414
399.800 1.810669
399.900 1.815272
400.000 1.808996
400.100 1.800000
400.200 1.798326
400.300 1.793724
400.400 1.793515
400.500 1.794142
400.600 1.795397
400.700 1.796444
400.800 1.799582
400.900 1.797908
401.000 1.796653
401.100 1.801046
401.200 1.807113
401.300 1.811925
401.400 1.813389
401.500 1.817573
401.600 1.826151
401.700 1.835565
401.800 1.843305
401.900 1.846862
402.000 1.846025
402.100 1.839749
402.200 1.829079
402.300 1.805021
402.400 1.771757
402.500 1.742678
402.600 1.735146
402.700 1.752720
402.800 1.780126
402.900 1.801046
403.000 1.818201
403.100 1.823640
403.200 1.828033
403.300 1.829289
403.400 1.832218
403.500 1.839749
403.600 1.844770
403.700 1.847699
403.800 1.848954
403.900 1.845816
404.000 1.845188
404.100 1.844351
404.200 1.839331
404.300 1.833473
404.400 1.820502
404.500 1.806485
404.600 1.798954
404.700 1.808368
404.800 1.821757
404.900 1.831381
405.000 1.833264
405.100 1.831590
405.200 1.827824
405.300 1.819456
405.400 1.814854
405.500 1.819247
405.600 1.823222
405.700 1.825105
405.800 1.824477
405.900 1.826360
406.000 1.826360
406.100 1.817155
406.200 1.804603
406.300 1.793724
406.400 1.775732
406.500 1.739121
406.600 1.737448
406.700 1.744561
406.800 1.743096
406.900 1.740795
407.000 1.732636
407.100 1.718619
407.200 1.711715
407.300 1.709414
407.400 1.712762
407.500 1.710879
407.600 1.696653
407.700 1.685565
407.800 1.679079
407.900 1.686192
408.000 1.697699
408.100 1.702510
408.200 1.699582
408.300 1.689958
408.400 1.676569
408.500 1.663808
408.600 1.650628
408.700 1.644561
408.800 1.635774
408.900 1.626778
409.000 1.607322
409.100 1.588285
409.200 1.566318
409.300 1.530126
409.400 1.493096
409.500 1.438075
409.600 1.379498
409.700 1.313389
409.800 1.222385
409.900 1.122176
410.000 0.998954
410.100 0.898536
410.200 0.868828
410.300 0.926778
410.400 1.038494
410.500 1.166318
410.600 1.256485
410.700 1.331172
410.800 1.390377
410.900 1.432636
411.000 1.473640
411.100 1.505021
411.200 1.537657
411.300 1.561715
411.400 1.584728
411.500 1.606067
411.600 1.623222
411.700 1.629707
411.800 1.627615
411.900 1.627197
412.000 1.627824
412.100 1.634310
412.200 1.642050
412.300 1.651883
412.400 1.664226
412.500 1.675314
412.600 1.669038
412.700 1.653975
412.800 1.642050
412.900 1.636192
413.000 1.637029
413.100 1.644351
413.200 1.652720
413.300 1.664854
413.400 1.683891
413.500 1.694142
413.600 1.700837
413.700 1.704393
413.800 1.710042
413.900 1.714435
414.000 1.714854
414.100 1.707113
414.200 1.691004
414.300 1.675941
414.400 1.668201
414.500 1.676360
414.600 1.691004
414.700 1.701674
414.800 1.703975
414.900 1.703347
415.000 1.706695
415.100 1.711506
