# Wavelength (nm)   F_lamA (normalized erg/cm2/s/A)9.100 0.000675
9.400 0.000766
9.600 0.000831
9.800 0.000898
10.000 0.000968
10.200 0.001040
10.400 0.001116
10.600 0.001195
10.800 0.001277
11.000 0.001364
11.400 0.001549
11.800 0.001755
12.100 0.001925
12.500 0.002174
12.700 0.002312
12.800 0.002383
13.100 0.002613
13.200 0.002695
13.400 0.002866
13.700 0.003147
14.000 0.003456
14.300 0.003801
14.700 0.004321
15.100 0.004917
15.500 0.005604
15.900 0.006390
16.200 0.007052
16.600 0.008043
17.000 0.009167
17.300 0.010102
17.700 0.011494
18.000 0.012653
18.200 0.013469
18.600 0.015260
19.100 0.017774
19.400 0.019434
19.800 0.021846
20.200 0.024481
20.500 0.026614
21.000 0.030464
21.600 0.035594
22.000 0.039332
22.300 0.042301
22.700 0.046484
23.000 1.000000
23.400 1.115028
24.000 1.422078
24.600 1.907236
25.200 2.390538
25.700 1.907236
26.000 2.649351
26.400 3.334879
26.900 3.436920
27.400 3.505566
27.900 3.286642
28.400 3.608534
29.000 3.604824
29.600 3.261596
30.100 2.140074
30.800 2.635436
31.800 3.378479
32.800 3.386827
33.800 3.293135
34.800 3.210575
35.700 3.309833
36.600 3.450835
37.500 3.384045
38.500 3.135436
39.500 3.294991
40.500 3.346939
41.400 3.306122
42.200 3.205937
43.000 3.131725
44.100 3.183673
45.100 3.143785
46.000 3.035250
47.000 2.983302
48.000 2.978664
49.000 2.860853
50.000 2.889610
50.600 3.138219
51.200 3.940631
52.000 3.835807
53.000 3.733766
54.000 3.479592
55.000 3.431354
56.000 3.636364
57.000 3.603896
58.000 3.477737
59.000 3.474954
60.000 3.344156
61.000 3.250464
62.000 3.351577
63.000 3.269944
64.000 3.255102
65.000 3.177180
65.800 3.085343
66.500 3.115028
67.500 3.098330
68.500 2.959184
69.500 2.997217
70.500 2.848794
71.600 2.916512
72.600 2.880334
73.500 2.848794
74.500 2.783859
75.500 2.733766
76.500 2.653989
77.500 2.646568
78.500 2.602968
79.500 2.572356
80.500 2.542672
81.500 2.514842
82.500 2.487013
83.500 2.351577
84.500 2.410019
85.500 2.368275
86.500 2.352505
87.500 2.321892
88.500 2.288497
89.500 2.255102
90.500 2.205937
91.500 2.277365
92.500 4.325603
93.500 6.131725
94.500 8.836735
95.500 10.120594
96.500 11.725417
97.500 6.884972
98.500 12.282004
99.500 11.994434
100.500 12.513915
101.500 11.233766
102.500 6.605751
103.500 10.204082
104.500 12.263451
105.500 12.337662
106.500 11.623377
107.500 11.929499
108.500 11.094620
109.500 11.669759
110.500 11.252319
111.500 11.066790
112.500 10.500928
113.500 10.714286
114.500 10.250464
115.500 10.148423
116.500 10.000000
117.500 8.794063
118.500 9.259740
119.500 8.410946
120.500 7.334879
121.500 4.512059
122.500 7.054731
123.500 8.040816
124.500 8.258813
125.500 8.294063
126.500 8.069573
127.500 8.252319
128.500 8.217996
129.500 7.858998
130.500 7.720779
131.500 7.879406
132.500 7.682746
133.500 7.458256
134.500 7.529685
135.500 7.388683
136.500 7.191095
137.500 7.095547
138.500 7.034323
139.500 6.635436
140.500 6.510204
141.500 6.682746
142.500 6.548237
143.500 6.463822
144.200 6.446197
144.700 6.394249
145.500 6.300557
146.500 6.163265
147.500 6.074212
148.500 5.988868
149.500 5.887755
150.500 5.782931
151.200 5.674397
151.700 5.666048
152.500 5.560297
153.500 5.345083
154.500 5.255102
155.500 5.130798
156.500 5.102968
157.500 5.118738
158.500 5.089981
159.500 5.058442
160.500 4.874768
161.500 4.810761
162.500 4.710575
163.500 4.667904
164.500 4.558442
165.500 4.505566
166.500 4.562152
167.200 4.396104
167.700 4.478664
168.500 4.457328
169.500 4.355288
170.500 4.267161
171.500 4.188312
172.500 4.126160
173.500 4.142857
174.500 4.054731
175.500 4.041744
176.500 3.895176
177.500 3.919295
178.500 3.869202
179.500 3.850649
180.500 3.809833
181.500 3.735622
182.500 3.686456
183.500 3.636364
184.500 3.523191
185.500 3.470315
186.500 3.448052
187.500 3.448052
188.500 3.353432
189.500 3.284787
190.500 3.296846
191.500 3.223562
192.500 3.174397
193.500 3.155844
194.500 3.168831
195.500 3.077922
196.700 3.089054
197.600 3.067718
198.400 3.010204
199.500 2.941558
200.500 2.928571
201.500 2.895176
202.500 2.873840
203.500 2.836735
204.500 2.812616
205.500 2.599258
206.500 2.639147
207.400 2.744898
207.800 2.714286
208.500 2.706865
209.500 2.653061
210.500 2.640074
211.500 2.622449
212.500 2.602041
213.500 2.544527
214.500 2.534323
215.500 2.516698
216.500 2.458256
217.500 2.439703
218.500 2.416512
219.500 2.425788
220.500 2.377551
221.500 2.322820
222.500 2.299629
223.500 2.319109
224.500 2.274583
225.500 2.222635
226.500 2.205937
227.500 2.206865
228.500 2.195733
229.500 2.139147
230.500 2.130798
231.500 2.111317
232.500 1.968460
233.500 2.052876
234.500 1.987941
235.500 2.022263
236.500 1.958256
237.500 1.967532
238.500 1.887755
239.500 1.915584
240.500 1.887755
241.500 1.876623
242.500 1.892393
243.500 1.856215
244.500 1.858998
245.500 1.841373
246.500 1.814471
247.500 1.786642
248.500 1.778293
249.500 1.727273
250.500 1.774583
251.300 1.704082
251.800 1.711503
252.500 1.681818
253.500 1.667904
254.500 1.658627
255.500 1.679035
256.500 1.657699
257.500 1.666976
258.500 1.653989
259.500 1.633581
260.500 1.604824
261.500 1.582560
262.500 1.589981
263.500 1.590909
264.500 1.629870
265.500 1.623377
266.500 1.581633
267.500 1.586271
268.500 1.584416
269.500 1.544527
270.500 1.543599
271.500 1.508349
272.500 1.493506
273.500 1.498145
274.500 1.433210
275.500 1.438776
276.500 1.452690
277.500 1.467532
278.500 1.436920
279.500 1.306122
280.500 1.336735
281.500 1.435065
282.500 1.429499
283.500 1.410019
284.500 1.391466
285.500 1.353432
286.500 1.385900
287.500 1.376623
288.500 1.371985
289.500 1.363636
291.000 1.375696
293.000 1.346011
295.000 1.322820
297.000 1.314471
299.000 1.300557
301.000 1.289425
303.000 1.273655
305.000 1.261596
307.000 1.242115
309.000 1.227273
311.000 1.211503
313.000 1.193878
315.000 1.179963
317.000 1.171614
319.000 1.140074
321.000 1.141002
323.000 1.118738
325.000 1.124304
327.000 1.126160
329.000 1.114100
331.000 1.104824
332.200 1.038961
332.300 1.032468
332.400 1.027829
332.500 1.030612
332.600 1.023191
332.700 1.011132
332.800 1.016698
332.900 1.025046
333.000 1.038961
333.100 1.046382
333.200 1.039889
333.300 1.033395
333.400 1.019481
333.500 1.013915
333.600 1.003711
333.700 0.995362
333.800 0.999072
333.900 1.001855
334.000 1.000000
334.100 1.003711
334.200 1.002783
334.300 1.020408
334.400 1.038961
334.500 1.043599
334.600 1.043599
334.700 1.030612
334.800 1.004638
334.900 0.978664
335.000 0.964750
335.100 0.971243
335.200 0.982375
335.300 0.990724
335.400 0.997217
335.500 1.001855
335.600 1.000000
335.700 0.992579
335.800 0.972171
335.900 0.951763
336.000 0.937848
336.100 0.940631
336.200 0.959184
336.300 0.976809
336.400 0.987941
336.500 0.976809
336.600 0.965677
336.700 0.959184
336.800 0.954545
336.900 0.955473
337.000 0.950835
337.100 0.941558
337.200 0.928571
337.300 0.933210
337.400 0.949907
337.500 0.976809
337.600 0.992579
337.700 0.984230
337.800 0.970315
337.900 0.961039
338.000 0.966605
338.100 0.978664
338.200 0.987013
338.300 0.993506
338.400 0.993506
338.500 0.999072
338.600 0.995362
338.700 0.983302
338.800 0.974954
338.900 0.982375
339.000 0.996289
339.100 1.008349
339.200 1.005566
339.300 0.995362
339.400 1.000000
339.500 1.009276
339.600 1.020408
339.700 1.022263
339.800 1.023191
339.900 1.008349
340.000 0.991651
340.100 0.987013
340.200 0.971243
340.300 0.966605
340.400 0.962894
340.500 0.969388
340.600 0.966605
340.700 0.963822
340.800 0.965677
340.900 0.966605
341.000 0.975881
341.100 0.968460
341.200 0.966605
341.300 0.970315
341.400 0.976809
341.500 0.985158
341.600 0.987941
341.700 0.989796
341.800 0.997217
341.900 1.004638
342.000 1.009276
342.100 1.009276
342.200 0.996289
342.300 0.984230
342.400 0.979592
342.500 0.982375
342.600 0.987941
342.700 0.996289
342.800 1.007421
342.900 1.017625
343.000 1.016698
343.100 1.003711
343.200 0.991651
343.300 0.987013
343.400 0.996289
343.500 1.009276
343.600 1.013915
343.700 1.007421
343.800 0.998145
343.900 0.987941
344.000 0.974026
344.100 0.958256
344.200 0.949907
344.300 0.949907
344.400 0.955473
344.500 0.963822
344.600 0.979592
344.700 0.997217
344.800 1.012987
344.900 1.024119
345.000 1.000000
345.100 0.969388
345.200 0.951763
345.300 0.947124
345.400 0.956401
345.500 0.961039
345.600 0.960111
345.700 0.961039
345.800 0.955473
345.900 0.952690
346.000 0.945269
346.100 0.941558
346.200 0.949907
346.300 0.964750
346.400 0.963822
346.500 0.958256
346.600 0.959184
346.700 0.966605
346.800 0.974954
346.900 0.982375
347.000 0.989796
347.100 0.986085
347.200 0.978664
347.300 0.961967
347.400 0.949907
347.500 0.943414
347.600 0.945269
347.700 0.952690
347.800 0.955473
347.900 0.958256
348.000 0.967532
348.100 0.971243
348.200 0.964750
348.300 0.957328
348.400 0.955473
348.500 0.970315
348.600 0.985158
348.700 0.988868
348.800 0.986085
348.900 0.975881
349.000 0.964750
349.100 0.966605
349.200 0.977737
349.300 0.980519
349.400 0.974954
349.500 0.963822
349.600 0.953618
349.700 0.958256
349.800 0.961967
349.900 0.963822
350.000 0.952690
350.100 0.944341
350.200 0.950835
350.300 0.954545
350.400 0.952690
350.500 0.943414
350.600 0.935993
350.700 0.934137
350.800 0.934137
350.900 0.939703
351.000 0.945269
351.100 0.947124
351.200 0.942486
351.300 0.933210
351.400 0.930427
351.500 0.938776
351.600 0.954545
351.700 0.965677
351.800 0.970315
351.900 0.961039
352.000 0.953618
352.100 0.948052
352.200 0.942486
352.300 0.939703
352.400 0.935993
352.500 0.931354
352.600 0.935993
352.700 0.941558
352.800 0.950835
352.900 0.961967
353.000 0.971243
353.100 0.977737
353.200 0.977737
353.300 0.961039
353.400 0.946197
353.500 0.940631
353.600 0.950835
353.700 0.961967
353.800 0.967532
353.900 0.973098
354.000 0.974954
354.100 0.972171
354.200 0.972171
354.300 0.978664
354.400 0.984230
354.500 0.982375
354.600 0.979592
354.700 0.976809
354.800 0.977737
354.900 0.976809
355.000 0.977737
355.100 0.984230
355.200 0.984230
355.300 0.974026
355.400 0.963822
355.500 0.962894
355.600 0.969388
355.700 0.980519
355.800 0.986085
355.900 0.985158
356.000 0.980519
356.100 0.980519
356.200 0.980519
356.300 0.973098
356.400 0.960111
356.500 0.948052
356.600 0.942486
356.700 0.942486
356.800 0.945269
356.900 0.943414
357.000 0.933210
357.100 0.914564
357.200 0.904824
357.300 0.903618
357.400 0.906308
357.500 0.913173
357.600 0.921800
357.700 0.925046
357.800 0.926345
357.900 0.923006
358.000 0.918089
358.100 0.912059
358.200 0.905751
358.300 0.905844
358.400 0.903618
358.500 0.894527
358.600 0.881262
358.700 0.874397
358.800 0.878664
358.900 0.895176
359.000 0.910668
359.100 0.917254
359.200 0.915770
359.300 0.914471
359.400 0.916512
359.500 0.924026
359.600 0.931354
359.700 0.935065
359.800 0.937848
359.900 0.939703
360.000 0.941558
360.100 0.932282
360.200 0.926623
360.300 0.921150
360.400 0.922078
360.500 0.925881
360.600 0.926531
360.700 0.923655
360.800 0.920872
360.900 0.922542
361.000 0.923469
361.100 0.923377
361.200 0.925603
361.300 0.926623
361.400 0.929499
361.500 0.940631
361.600 0.944341
361.700 0.942486
361.800 0.935993
361.900 0.929499
362.000 0.931354
362.100 0.936920
362.200 0.946197
362.300 0.951763
362.400 0.953618
362.500 0.961967
362.600 0.975881
362.700 0.987941
362.800 0.983302
362.900 0.968460
363.000 0.947124
363.100 0.934137
363.200 0.935993
363.300 0.948052
363.400 0.960111
363.500 0.958256
363.600 0.946197
363.700 0.944341
363.800 0.949907
363.900 0.955473
364.000 0.958256
364.100 0.955473
364.200 0.948052
364.300 0.939703
364.400 0.934137
364.500 0.934137
364.600 0.930427
364.700 0.929499
364.800 0.930427
364.900 0.929499
365.000 0.930427
365.100 0.931354
365.200 0.938776
365.300 0.946197
365.400 0.951763
365.500 0.958256
365.600 0.963822
365.700 0.965677
365.800 0.963822
365.900 0.961039
366.000 0.954545
366.100 0.948052
366.200 0.941558
366.300 0.941558
366.400 0.945269
366.500 0.948980
366.600 0.948980
366.700 0.945269
366.800 0.940631
366.900 0.937848
367.000 0.937848
367.100 0.940631
367.200 0.947124
367.300 0.949907
367.400 0.946197
367.500 0.938776
367.600 0.928571
367.700 0.919202
367.800 0.913173
367.900 0.915121
368.000 0.920965
368.100 0.926531
368.200 0.926345
368.300 0.923191
368.400 0.921800
368.500 0.916512
368.600 0.909740
368.700 0.909740
368.800 0.927087
368.900 0.949907
369.000 0.952690
369.100 0.939703
369.200 0.935993
369.300 0.947124
369.400 0.962894
369.500 0.965677
369.600 0.945269
369.700 0.926716
369.800 0.934137
369.900 0.968460
370.000 1.011132
370.100 1.014842
370.200 0.975881
370.300 0.910111
370.400 0.871336
370.500 0.868831
370.600 0.906308
370.700 0.952690
370.800 0.987013
370.900 0.976809
371.000 0.931354
371.100 0.886085
371.200 0.860204
371.300 0.881262
371.400 0.940631
371.500 1.018553
371.600 1.067718
371.700 1.093692
371.800 1.078850
371.900 1.018553
372.000 0.918553
372.100 0.847681
372.200 0.815955
372.300 0.847774
372.400 0.929499
372.500 1.015770
372.600 1.070501
372.700 1.115028
372.800 1.132653
372.900 1.136364
373.000 1.118738
373.100 1.066790
373.200 0.966605
373.300 0.875974
373.400 0.796289
373.500 0.778293
373.600 0.824026
373.700 0.918460
373.800 1.008349
373.900 1.111317
374.000 1.169759
374.100 1.207792
374.200 1.212430
374.300 1.200371
374.400 1.172542
374.500 1.135436
374.600 1.077922
374.700 1.003711
374.800 0.918460
374.900 0.825881
375.000 0.786085
375.100 0.801020
375.200 0.869759
375.300 0.974954
375.400 1.075139
375.500 1.138219
375.600 1.189239
375.700 1.205009
375.800 1.207792
375.900 1.204082
376.000 1.203154
376.100 1.213358
376.200 1.226345
376.300 1.221707
376.400 1.205937
376.500 1.168831
376.600 1.116883
376.700 1.055659
376.800 0.960111
376.900 0.869388
377.000 0.793043
377.100 0.773284
377.200 0.824861
377.300 0.923191
377.400 1.006494
377.500 1.086271
377.600 1.144712
377.700 1.198516
377.800 1.256957
377.900 1.297774
378.000 1.340445
378.100 1.362709
378.200 1.375696
378.300 1.378479
378.400 1.377551
378.500 1.373840
378.600 1.365492
378.700 1.344156
378.800 1.324675
378.900 1.305195
379.000 1.280148
379.100 1.251391
379.200 1.204082
379.300 1.149351
379.400 1.077922
379.500 0.978664
379.600 0.884137
379.700 0.787013
379.800 0.744341
379.900 0.772542
380.000 0.870130
380.100 0.974954
380.200 1.082560
380.300 1.146568
380.400 1.208720
380.500 1.249536
380.600 1.279221
380.700 1.313544
380.800 1.343228
380.900 1.378479
381.000 1.406308
381.100 1.422078
381.200 1.414657
381.300 1.400742
381.400 1.385900
381.500 1.386827
381.600 1.395176
381.700 1.403525
381.800 1.399814
381.900 1.372913
382.000 1.351577
382.100 1.342301
382.200 1.352505
382.300 1.353432
382.400 1.329314
382.500 1.298701
382.600 1.263451
382.700 1.236549
382.800 1.200371
382.900 1.156772
383.000 1.112245
383.100 1.045455
383.200 0.975881
383.300 0.875417
383.400 0.773191
383.500 0.719944
383.600 0.715213
383.700 0.767440
383.800 0.855659
383.900 0.945269
384.000 1.023191
384.100 1.106679
384.200 1.169759
384.300 1.238404
384.400 1.282931
384.500 1.321892
384.600 1.354360
384.700 1.379406
384.800 1.397959
384.900 1.406308
385.000 1.413729
385.100 1.431354
385.200 1.451763
385.300 1.467532
385.400 1.468460
385.500 1.461039
385.600 1.451763
385.700 1.447124
385.800 1.449907
385.900 1.459184
386.000 1.469388
386.100 1.477737
386.200 1.478664
386.300 1.466605
386.400 1.461967
386.500 1.459184
386.600 1.460111
386.700 1.465677
386.800 1.469388
386.900 1.467532
387.000 1.452690
387.100 1.434137
387.200 1.408163
387.300 1.396104
387.400 1.392393
387.500 1.393321
387.600 1.384972
387.700 1.356215
387.800 1.328386
387.900 1.301484
388.000 1.287570
388.100 1.268089
388.200 1.226345
388.300 1.182746
388.400 1.123377
388.500 1.052876
388.600 0.964750
388.700 0.849443
388.800 0.764842
388.900 0.723284
389.000 0.754082
389.100 0.841929
389.200 0.949907
389.300 1.027829
389.400 1.099258
389.500 1.149351
389.600 1.203154
389.700 1.247681
389.800 1.279221
389.900 1.304267
390.000 1.322820
390.100 1.349722
390.200 1.374768
390.300 1.395176
390.400 1.403525
390.500 1.408163
390.600 1.418367
390.700 1.438776
390.800 1.469388
390.900 1.498145
391.000 1.512059
391.100 1.516698
391.200 1.513915
391.300 1.501855
391.400 1.490724
391.500 1.492579
391.600 1.504638
391.700 1.509276
391.800 1.507421
391.900 1.499072
392.000 1.497217
392.100 1.498145
392.200 1.497217
392.300 1.498145
392.400 1.497217
392.500 1.497217
392.600 1.484230
392.700 1.468460
392.800 1.442486
392.900 1.411874
393.000 1.373840
393.100 1.300557
393.200 1.195733
393.300 1.084416
393.400 1.057514
393.500 1.128942
393.600 1.244898
393.700 1.342301
393.800 1.410946
393.900 1.447124
394.000 1.469388
394.100 1.484230
394.200 1.487941
394.300 1.481447
394.400 1.475881
394.500 1.467532
394.600 1.465677
394.700 1.466605
394.800 1.460111
394.900 1.450835
395.000 1.443414
395.100 1.435065
395.200 1.425788
395.300 1.423933
395.400 1.419295
395.500 1.404453
395.600 1.385900
395.700 1.362709
395.800 1.349722
395.900 1.331169
396.000 1.299629
396.100 1.261596
396.200 1.210575
396.300 1.166048
396.400 1.106679
396.500 1.026902
396.600 0.925139
396.700 0.779777
396.800 0.659091
396.900 0.579777
397.000 0.581076
397.100 0.650928
397.200 0.766327
397.300 0.872356
397.400 0.978664
397.500 1.054731
397.600 1.124304
397.700 1.180891
397.800 1.221707
397.900 1.266234
398.000 1.293135
398.100 1.318182
398.200 1.338590
398.300 1.357143
398.400 1.379406
398.500 1.398887
398.600 1.413729
398.700 1.423006
398.800 1.442486
398.900 1.451763
399.000 1.459184
399.100 1.467532
399.200 1.473098
399.300 1.483302
399.400 1.487941
399.500 1.490724
399.600 1.484230
399.700 1.478664
399.800 1.477737
399.900 1.487013
400.000 1.491651
400.100 1.493506
400.200 1.494434
400.300 1.489796
400.400 1.485158
400.500 1.479592
400.600 1.480519
400.700 1.487013
400.800 1.499072
400.900 1.504638
401.000 1.506494
401.100 1.508349
401.200 1.508349
401.300 1.510204
401.400 1.510204
401.500 1.515770
401.600 1.524119
401.700 1.531540
401.800 1.538961
401.900 1.542672
402.000 1.543599
402.100 1.538961
402.200 1.531540
402.300 1.517625
402.400 1.499072
402.500 1.486085
402.600 1.484230
402.700 1.499072
402.800 1.512987
402.900 1.520408
403.000 1.520408
403.100 1.516698
403.200 1.516698
403.300 1.517625
403.400 1.523191
403.500 1.535250
403.600 1.545455
403.700 1.556586
403.800 1.557514
403.900 1.551948
404.000 1.546382
404.100 1.542672
404.200 1.540816
404.300 1.535250
404.400 1.517625
404.500 1.498145
404.600 1.487941
404.700 1.501855
404.800 1.522263
404.900 1.536178
405.000 1.538961
405.100 1.538961
405.200 1.535250
405.300 1.526902
405.400 1.519481
405.500 1.518553
405.600 1.522263
405.700 1.525046
405.800 1.525974
405.900 1.532468
406.000 1.536178
406.100 1.527829
406.200 1.509276
406.300 1.489796
406.400 1.474954
406.500 1.456401
406.600 1.459184
406.700 1.463822
406.800 1.462894
406.900 1.461039
407.000 1.451763
407.100 1.433210
407.200 1.423006
407.300 1.423933
407.400 1.430427
407.500 1.429499
407.600 1.411874
407.700 1.395176
407.800 1.386827
407.900 1.394249
408.000 1.408163
408.100 1.415584
408.200 1.413729
408.300 1.403525
408.400 1.391466
408.500 1.377551
408.600 1.367347
408.700 1.361781
408.800 1.355288
408.900 1.346939
409.000 1.326531
409.100 1.308905
409.200 1.291280
409.300 1.259740
409.400 1.230056
409.500 1.180891
409.600 1.133581
409.700 1.079777
409.800 1.008349
409.900 0.929499
410.000 0.823562
410.100 0.744620
410.200 0.717718
410.300 0.769573
410.400 0.861781
410.500 0.965677
410.600 1.034323
410.700 1.094620
410.800 1.140074
410.900 1.175325
411.000 1.211503
411.100 1.238404
411.200 1.269017
411.300 1.293135
411.400 1.315399
411.500 1.336735
411.600 1.352505
411.700 1.359926
411.800 1.359926
411.900 1.359926
412.000 1.362709
412.100 1.371985
412.200 1.382189
412.300 1.392393
412.400 1.403525
412.500 1.412801
412.600 1.412801
412.700 1.406308
412.800 1.401670
412.900 1.399814
413.000 1.398887
413.100 1.398887
413.200 1.399814
413.300 1.407236
413.400 1.423933
413.500 1.435993
413.600 1.445269
413.700 1.452690
413.800 1.460111
413.900 1.467532
414.000 1.466605
414.100 1.456401
414.200 1.440631
414.300 1.424861
414.400 1.421150
414.500 1.428571
414.600 1.444341
414.700 1.451763
414.800 1.453618
414.900 1.454545
415.000 1.457328
415.100 1.461967
415.200 1.461039
415.300 1.456401
415.400 1.451763
