# Wavelength (nm)   F_lamA (normalized erg/cm2/s/A)9.100 0.000386
9.400 0.000447
9.600 0.000491
9.800 0.000537
10.000 0.000586
10.200 0.000639
10.400 0.000694
10.600 0.000753
10.800 0.000814
11.000 0.000880
11.400 0.001023
11.800 0.001182
12.100 0.001314
12.500 0.001511
12.700 0.001618
12.800 0.001675
13.100 0.001856
13.200 0.001921
13.400 0.002057
13.700 0.002281
14.000 0.002530
14.300 0.002810
14.700 0.003239
15.100 0.003744
15.500 0.004338
15.900 0.005038
16.200 0.005644
16.600 0.006574
17.000 0.007665
17.300 0.008601
17.700 0.010020
18.000 0.011233
18.200 0.012114
18.600 0.014061
19.100 0.016888
19.400 0.018806
19.800 0.021634
20.200 0.024804
20.500 0.027407
21.000 0.032221
21.600 0.038796
22.000 0.043679
22.300 0.047622
22.700 0.053239
23.000 1.541096
23.400 1.691781
24.000 2.169276
24.600 2.951076
25.200 3.595890
25.700 2.789628
26.000 3.966732
26.400 4.998043
26.900 5.085127
27.400 5.162427
27.900 4.963796
28.400 5.219178
29.000 5.192759
29.600 4.774951
30.100 3.318004
30.800 4.115460
31.800 5.114481
32.800 5.126223
33.800 5.023483
34.800 4.930528
35.700 5.000000
36.600 5.056751
37.500 4.971624
38.500 4.706458
39.500 4.824853
40.500 4.829746
41.400 4.765166
42.200 4.643836
43.000 4.565558
44.100 4.570450
45.100 4.493151
46.000 4.369863
47.000 4.291585
48.000 4.252446
49.000 4.117417
50.000 4.105675
50.600 4.414873
51.200 5.227984
52.000 5.126223
53.000 5.033268
54.000 4.769080
55.000 4.711350
56.000 4.835616
57.000 4.772016
58.000 4.623288
59.000 4.600783
60.000 4.465753
61.000 4.339530
62.000 4.383562
63.000 4.289628
64.000 4.244618
65.000 4.148728
65.800 4.045010
66.500 4.051859
67.500 4.006849
68.500 3.862035
69.500 3.869863
70.500 3.720157
71.600 3.741683
72.600 3.685910
73.500 3.636008
74.500 3.558708
75.500 3.493151
76.500 3.406067
77.500 3.375734
78.500 3.316047
79.500 3.266145
80.500 3.223092
81.500 3.177104
82.500 3.136008
83.500 3.004892
84.500 3.031311
85.500 2.976517
86.500 2.946184
87.500 2.902153
88.500 2.857143
89.500 2.811155
90.500 2.748532
91.500 2.936399
92.500 5.097847
93.500 7.123288
94.500 10.440313
95.500 11.908023
96.500 13.874755
97.500 8.429550
98.500 14.667319
99.500 14.432485
100.500 14.911937
101.500 13.268102
102.500 7.713307
103.500 12.172211
104.500 14.266145
105.500 14.422701
106.500 13.776908
107.500 14.011742
108.500 13.111546
109.500 13.659491
110.500 13.219178
111.500 12.984344
112.500 12.367906
113.500 12.485323
114.500 11.996086
115.500 11.829746
116.500 11.594912
117.500 10.362035
118.500 10.704501
119.500 9.833659
120.500 8.625245
121.500 5.266145
122.500 8.230920
123.500 9.231898
124.500 9.438356
125.500 9.514677
126.500 9.326810
127.500 9.432485
128.500 9.376712
129.500 9.052838
130.500 8.899217
131.500 8.999022
132.500 8.792564
133.500 8.570450
134.500 8.603718
135.500 8.451076
136.500 8.266145
137.500 8.141879
138.500 8.051859
139.500 7.684932
140.500 7.544031
141.500 7.651663
142.500 7.513699
143.500 7.394325
144.200 7.352250
144.700 7.289628
145.500 7.191781
146.500 7.046967
147.500 6.945205
148.500 6.838552
149.500 6.719178
150.500 6.609589
151.200 6.516634
151.700 6.483366
152.500 6.369863
153.500 6.178082
154.500 6.074364
155.500 5.946184
156.500 5.879648
157.500 5.862035
158.500 5.811155
159.500 5.759295
160.500 5.577299
161.500 5.502935
162.500 5.392368
163.500 5.315068
164.500 5.180039
165.500 5.144814
166.500 5.179061
167.200 5.025440
167.700 5.074364
168.500 5.043053
169.500 4.941292
170.500 4.851272
171.500 4.772016
172.500 4.701566
173.500 4.694716
174.500 4.601761
175.500 4.570450
176.500 4.429550
177.500 4.438356
178.500 4.372798
179.500 4.340509
180.500 4.295499
181.500 4.224070
182.500 4.164384
183.500 4.109589
184.500 4.006849
185.500 3.941292
186.500 3.907045
187.500 3.891389
188.500 3.806262
189.500 3.738748
190.500 3.730920
191.500 3.654599
192.500 3.606654
193.500 3.572407
194.500 3.569472
195.500 3.486301
196.700 3.477495
197.600 3.443249
198.400 3.392368
199.500 3.321918
200.500 3.301370
201.500 3.261252
202.500 3.228963
203.500 3.194716
204.500 3.162427
205.500 2.939335
206.500 2.966732
207.400 3.074364
207.800 3.045988
208.500 3.033268
209.500 2.983366
210.500 2.961840
211.500 2.940313
212.500 2.910959
213.500 2.858121
214.500 2.841487
215.500 2.815068
216.500 2.757339
217.500 2.735812
218.500 2.708415
219.500 2.709393
220.500 2.661448
221.500 2.606654
222.500 2.583170
223.500 2.592955
224.500 2.548924
225.500 2.496086
226.500 2.473581
227.500 2.469667
228.500 2.453033
229.500 2.398239
230.500 2.387476
231.500 2.367906
232.500 2.227984
233.500 2.308219
234.500 2.243640
235.500 2.269080
236.500 2.208415
237.500 2.213307
238.500 2.135029
239.500 2.159491
240.500 2.132094
241.500 2.116438
242.500 2.124266
243.500 2.089041
244.500 2.083170
245.500 2.066536
246.500 2.036204
247.500 2.009785
248.500 1.998043
249.500 1.951076
250.500 1.985323
251.300 1.922701
251.800 1.931507
252.500 1.901174
253.500 1.881605
254.500 1.870841
255.500 1.885519
256.500 1.863992
257.500 1.867906
258.500 1.854207
259.500 1.832681
260.500 1.806262
261.500 1.782779
262.500 1.783757
263.500 1.777886
264.500 1.808219
265.500 1.797456
266.500 1.760274
267.500 1.760274
268.500 1.756360
269.500 1.722114
270.500 1.716243
271.500 1.684932
272.500 1.668297
273.500 1.667319
274.500 1.612524
275.500 1.613503
276.500 1.622309
277.500 1.633072
278.500 1.609589
279.500 1.491194
280.500 1.518591
281.500 1.598826
282.500 1.584149
283.500 1.566536
284.500 1.549902
285.500 1.517613
286.500 1.535225
287.500 1.524462
288.500 1.520548
289.500 1.511742
291.000 1.513699
293.000 1.485323
295.000 1.459883
297.000 1.448141
299.000 1.432485
301.000 1.415851
303.000 1.397260
305.000 1.379648
307.000 1.358121
309.000 1.341487
311.000 1.321918
313.000 1.303327
315.000 1.287671
317.000 1.274951
319.000 1.243640
321.000 1.237769
323.000 1.217221
325.000 1.214286
327.000 1.209393
329.000 1.195695
331.000 1.183953
332.200 1.103718
332.300 1.102740
332.400 1.098826
332.500 1.096869
332.600 1.088063
332.700 1.074364
332.800 1.083170
332.900 1.092955
333.000 1.104697
333.100 1.110568
333.200 1.103718
333.300 1.092955
333.400 1.078278
333.500 1.074364
333.600 1.063601
333.700 1.051859
333.800 1.052838
333.900 1.057730
334.000 1.060665
334.100 1.065558
334.200 1.064579
334.300 1.084149
334.400 1.101761
334.500 1.105675
334.600 1.105675
334.700 1.091977
334.800 1.068493
334.900 1.041096
335.000 1.022505
335.100 1.029354
335.200 1.040117
335.300 1.047945
335.400 1.050881
335.500 1.056751
335.600 1.059687
335.700 1.056751
335.800 1.041096
335.900 1.022505
336.000 1.011742
336.100 1.010763
336.200 1.027397
336.300 1.039139
336.400 1.046967
336.500 1.035225
336.600 1.022505
336.700 1.015656
336.800 1.010763
336.900 1.011742
337.000 1.009785
337.100 1.003914
337.200 0.992172
337.300 0.996086
337.400 1.009785
337.500 1.037182
337.600 1.054795
337.700 1.043053
337.800 1.026419
337.900 1.014677
338.000 1.019569
338.100 1.032290
338.200 1.044031
338.300 1.053816
338.400 1.055773
338.500 1.058708
338.600 1.055773
338.700 1.043053
338.800 1.035225
338.900 1.045010
339.000 1.056751
339.100 1.067515
339.200 1.061644
339.300 1.049902
339.400 1.058708
339.500 1.070450
339.600 1.081213
339.700 1.081213
339.800 1.079256
339.900 1.063601
340.000 1.046967
340.100 1.043053
340.200 1.028376
340.300 1.023483
340.400 1.022505
340.500 1.027397
340.600 1.021526
340.700 1.016634
340.800 1.017613
340.900 1.024462
341.000 1.034247
341.100 1.023483
341.200 1.022505
341.300 1.030333
341.400 1.041096
341.500 1.047945
341.600 1.048924
341.700 1.047945
341.800 1.052838
341.900 1.060665
342.000 1.064579
342.100 1.065558
342.200 1.054795
342.300 1.043053
342.400 1.037182
342.500 1.039139
342.600 1.045010
342.700 1.051859
342.800 1.061644
342.900 1.070450
343.000 1.066536
343.100 1.056751
343.200 1.046967
343.300 1.045010
343.400 1.052838
343.500 1.063601
343.600 1.067515
343.700 1.062622
343.800 1.056751
343.900 1.046967
344.000 1.033268
344.100 1.017613
344.200 1.010763
344.300 1.011742
344.400 1.017613
344.500 1.023483
344.600 1.036204
344.700 1.050881
344.800 1.066536
344.900 1.078278
345.000 1.053816
345.100 1.022505
345.200 1.003914
345.300 0.997065
345.400 1.008806
345.500 1.012720
345.600 1.010763
345.700 1.009785
345.800 1.006849
345.900 1.006849
346.000 1.001957
346.100 0.999022
346.200 1.004892
346.300 1.019569
346.400 1.014677
346.500 1.009785
346.600 1.012720
346.700 1.019569
346.800 1.028376
346.900 1.034247
347.000 1.040117
347.100 1.036204
347.200 1.027397
347.300 1.013699
347.400 1.004892
347.500 1.000000
347.600 1.000000
347.700 1.003914
347.800 1.005871
347.900 1.006849
348.000 1.016634
348.100 1.018591
348.200 1.009785
348.300 1.000978
348.400 1.000978
348.500 1.018591
348.600 1.035225
348.700 1.040117
348.800 1.039139
348.900 1.027397
349.000 1.016634
349.100 1.019569
349.200 1.031311
349.300 1.032290
349.400 1.026419
349.500 1.016634
349.600 1.008806
349.700 1.012720
349.800 1.015656
349.900 1.015656
350.000 1.002935
350.100 0.994129
350.200 1.000000
350.300 1.002935
350.400 1.000000
350.500 0.991194
350.600 0.986301
350.700 0.986301
350.800 0.987280
350.900 0.989237
351.000 0.992172
351.100 0.995108
351.200 0.994129
351.300 0.985323
351.400 0.982387
351.500 0.991194
351.600 1.004892
351.700 1.012720
351.800 1.014677
351.900 1.007828
352.000 1.002935
352.100 0.998043
352.200 0.993151
352.300 0.990215
352.400 0.988258
352.500 0.985323
352.600 0.989237
352.700 0.993151
352.800 1.000978
352.900 1.009785
353.000 1.019569
353.100 1.027397
353.200 1.028376
353.300 1.017613
353.400 1.004892
353.500 0.999022
353.600 1.004892
353.700 1.008806
353.800 1.010763
353.900 1.016634
354.000 1.019569
354.100 1.018591
354.200 1.019569
354.300 1.024462
354.400 1.029354
354.500 1.028376
354.600 1.027397
354.700 1.026419
354.800 1.026419
354.900 1.024462
355.000 1.024462
355.100 1.032290
355.200 1.033268
355.300 1.024462
355.400 1.014677
355.500 1.012720
355.600 1.018591
355.700 1.029354
355.800 1.033268
355.900 1.030333
356.000 1.024462
356.100 1.024462
356.200 1.024462
356.300 1.018591
356.400 1.006849
356.500 0.999022
356.600 0.997065
356.700 0.997065
356.800 0.996086
356.900 0.991194
357.000 0.982387
357.100 0.964677
357.200 0.954697
357.300 0.951957
357.400 0.953620
357.500 0.960568
357.600 0.968591
357.700 0.971820
357.800 0.972798
357.900 0.968982
358.000 0.964775
358.100 0.959785
358.200 0.954697
358.300 0.955479
358.400 0.952740
358.500 0.943836
358.600 0.932094
358.700 0.926125
358.800 0.929452
358.900 0.942955
359.000 0.956556
359.100 0.960763
359.200 0.958219
359.300 0.957926
359.400 0.960861
359.500 0.968297
359.600 0.973875
359.700 0.976810
359.800 0.980431
359.900 0.984344
360.000 0.987280
360.100 0.979452
360.200 0.974462
360.300 0.968200
360.400 0.967515
360.500 0.969667
360.600 0.971233
360.700 0.968689
360.800 0.967613
360.900 0.971526
361.000 0.973483
361.100 0.972505
361.200 0.973288
361.300 0.972994
361.400 0.975342
361.500 0.984344
361.600 0.988258
361.700 0.987280
361.800 0.981409
361.900 0.977495
362.000 0.979452
362.100 0.984344
362.200 0.993151
362.300 0.997065
362.400 0.997065
362.500 1.005871
362.600 1.018591
362.700 1.028376
362.800 1.023483
362.900 1.009785
363.000 0.992172
363.100 0.981409
363.200 0.984344
363.300 0.998043
363.400 1.009785
363.500 1.007828
363.600 0.992172
363.700 0.987280
363.800 0.991194
363.900 0.997065
364.000 0.999022
364.100 0.996086
364.200 0.990215
364.300 0.981409
364.400 0.975734
364.500 0.976027
364.600 0.973190
364.700 0.972896
364.800 0.974658
364.900 0.973581
365.000 0.973581
365.100 0.974853
365.200 0.981409
365.300 0.986301
365.400 0.991194
365.500 0.997065
365.600 1.002935
365.700 1.003914
365.800 1.001957
365.900 1.000000
366.000 0.994129
366.100 0.988258
366.200 0.982387
366.300 0.983366
366.400 0.987280
366.500 0.989237
366.600 0.989237
366.700 0.984344
366.800 0.979452
366.900 0.976908
367.000 0.979452
367.100 0.982387
367.200 0.989237
367.300 0.990215
367.400 0.985323
367.500 0.977299
367.600 0.967319
367.700 0.960176
367.800 0.956458
367.900 0.958806
368.000 0.964286
368.100 0.969569
368.200 0.967710
368.300 0.964188
368.400 0.961742
368.500 0.954990
368.600 0.949609
368.700 0.951076
368.800 0.969374
368.900 0.991194
369.000 0.990215
369.100 0.974462
369.200 0.972505
369.300 0.985323
369.400 1.000978
369.500 1.001957
369.600 0.980431
369.700 0.963992
369.800 0.972114
369.900 1.008806
370.000 1.049902
370.100 1.050881
370.200 1.009785
370.300 0.944521
370.400 0.910372
370.500 0.912622
370.600 0.953131
370.700 0.999022
370.800 1.030333
370.900 1.015656
371.000 0.968689
371.100 0.923092
371.200 0.897652
371.300 0.919667
371.400 0.978474
371.500 1.056751
371.600 1.106654
371.700 1.134051
371.800 1.120352
371.900 1.057730
372.000 0.958219
372.100 0.888845
372.200 0.856360
372.300 0.889726
372.400 0.970744
372.500 1.057730
372.600 1.112524
372.700 1.159491
372.800 1.179061
372.900 1.182975
373.000 1.163405
373.100 1.105675
373.200 1.003914
373.300 0.912916
373.400 0.834247
373.500 0.820157
373.600 0.868885
373.700 0.963405
373.800 1.055773
373.900 1.161448
374.000 1.220157
374.100 1.261252
374.200 1.269080
374.300 1.257339
374.400 1.228963
374.500 1.188845
374.600 1.127202
374.700 1.051859
374.800 0.962916
374.900 0.868004
375.000 0.828180
375.100 0.840411
375.200 0.907730
375.300 1.013699
375.400 1.117417
375.500 1.184932
375.600 1.239726
375.700 1.258317
375.800 1.267123
375.900 1.269080
376.000 1.271037
376.100 1.277886
376.200 1.287671
376.300 1.280822
376.400 1.261252
376.500 1.219178
376.600 1.163405
376.700 1.096869
376.800 0.995108
376.900 0.900587
377.000 0.822407
377.100 0.802348
377.200 0.857926
377.300 0.958415
377.400 1.043053
377.500 1.129159
377.600 1.193738
377.700 1.254403
377.800 1.316047
377.900 1.358121
378.000 1.402153
378.100 1.426614
378.200 1.442270
378.300 1.447162
378.400 1.448141
378.500 1.445205
378.600 1.436399
378.700 1.415851
378.800 1.395303
378.900 1.372798
379.000 1.342466
379.100 1.310176
379.200 1.256360
379.300 1.196673
379.400 1.120352
379.500 1.017613
379.600 0.919472
379.700 0.818982
379.800 0.775930
379.900 0.806458
380.000 0.903033
380.100 1.008806
380.200 1.121331
380.300 1.189824
380.400 1.258317
380.500 1.305284
380.600 1.340509
380.700 1.380626
380.800 1.411937
380.900 1.449119
381.000 1.476517
381.100 1.493151
381.200 1.488258
381.300 1.476517
381.400 1.465753
381.500 1.467710
381.600 1.475538
381.700 1.484344
381.800 1.479452
381.900 1.453033
382.000 1.432485
382.100 1.422701
382.200 1.430528
382.300 1.426614
382.400 1.401174
382.500 1.370841
382.600 1.334638
382.700 1.305284
382.800 1.263209
382.900 1.215264
383.000 1.165362
383.100 1.091977
383.200 1.017613
383.300 0.912035
383.400 0.806849
383.500 0.752055
383.600 0.747358
383.700 0.802935
383.800 0.894227
383.900 0.987280
384.000 1.070450
384.100 1.160470
384.200 1.226027
384.300 1.298434
384.400 1.343444
384.500 1.386497
384.600 1.421722
384.700 1.448141
384.800 1.469667
384.900 1.479452
385.000 1.489237
385.100 1.507828
385.200 1.528376
385.300 1.543053
385.400 1.544031
385.500 1.538160
385.600 1.529354
385.700 1.527397
385.800 1.532290
385.900 1.542074
386.000 1.553816
386.100 1.562622
386.200 1.559687
386.300 1.542074
386.400 1.535225
386.500 1.532290
386.600 1.535225
386.700 1.542074
386.800 1.546967
386.900 1.544031
387.000 1.529354
387.100 1.512720
387.200 1.486301
387.300 1.473581
387.400 1.468689
387.500 1.467710
387.600 1.455969
387.700 1.425636
387.800 1.398239
387.900 1.371820
388.000 1.353229
388.100 1.327789
388.200 1.281800
388.300 1.234834
388.400 1.169276
388.500 1.093933
388.600 0.999022
388.700 0.880235
388.800 0.792759
388.900 0.750098
389.000 0.782975
389.100 0.874266
389.200 0.984344
389.300 1.066536
389.400 1.145793
389.500 1.198630
389.600 1.257339
389.700 1.305284
389.800 1.339530
389.900 1.368885
390.000 1.388454
390.100 1.420744
390.200 1.449119
390.300 1.471624
390.400 1.481409
390.500 1.487280
390.600 1.499022
390.700 1.519569
390.800 1.549902
390.900 1.576321
391.000 1.589041
391.100 1.593933
391.200 1.590020
391.300 1.578278
391.400 1.568493
391.500 1.571429
391.600 1.584149
391.700 1.588063
391.800 1.586106
391.900 1.579256
392.000 1.579256
392.100 1.582192
392.200 1.581213
392.300 1.580235
392.400 1.578278
392.500 1.580235
392.600 1.570450
392.700 1.556751
392.800 1.532290
392.900 1.503914
393.000 1.466732
393.100 1.400196
393.200 1.294521
393.300 1.182975
393.400 1.167319
393.500 1.245597
393.600 1.354207
393.700 1.442270
393.800 1.505871
393.900 1.536204
394.000 1.553816
394.100 1.567515
394.200 1.570450
394.300 1.565558
394.400 1.557730
394.500 1.547945
394.600 1.543053
394.700 1.540117
394.800 1.533268
394.900 1.525440
395.000 1.518591
395.100 1.507828
395.200 1.498043
395.300 1.495108
395.400 1.488258
395.500 1.472603
395.600 1.452055
395.700 1.428571
395.800 1.413894
395.900 1.393346
396.000 1.360078
396.100 1.320939
396.200 1.268102
396.300 1.224070
396.400 1.160470
396.500 1.079256
396.600 0.973973
396.700 0.823581
396.800 0.700391
396.900 0.619472
397.000 0.619178
397.100 0.688454
397.200 0.802544
397.300 0.908121
397.400 1.017613
397.500 1.094912
397.600 1.169276
397.700 1.227984
397.800 1.271037
397.900 1.319961
398.000 1.348337
398.100 1.377691
398.200 1.400196
398.300 1.419765
398.400 1.443249
398.500 1.461840
398.600 1.477495
398.700 1.485323
398.800 1.506849
398.900 1.517613
399.000 1.526419
399.100 1.536204
399.200 1.541096
399.300 1.550881
399.400 1.555773
399.500 1.559687
399.600 1.555773
399.700 1.549902
399.800 1.548924
399.900 1.557730
400.000 1.560665
400.100 1.560665
400.200 1.559687
400.300 1.554795
400.400 1.550881
400.500 1.546967
400.600 1.549902
400.700 1.556751
400.800 1.566536
400.900 1.570450
401.000 1.572407
401.100 1.573386
401.200 1.575342
401.300 1.576321
401.400 1.576321
401.500 1.581213
401.600 1.589041
401.700 1.596869
401.800 1.606654
401.900 1.609589
402.000 1.609589
402.100 1.605675
402.200 1.597847
402.300 1.584149
402.400 1.564579
402.500 1.549902
402.600 1.546967
402.700 1.560665
402.800 1.574364
402.900 1.582192
403.000 1.585127
403.100 1.583170
403.200 1.584149
403.300 1.585127
403.400 1.590020
403.500 1.600783
403.600 1.611546
403.700 1.621331
403.800 1.621331
403.900 1.614481
404.000 1.609589
404.100 1.607632
404.200 1.607632
404.300 1.602740
404.400 1.586106
404.500 1.568493
404.600 1.560665
404.700 1.572407
404.800 1.589041
404.900 1.599804
405.000 1.600783
405.100 1.602740
405.200 1.600783
405.300 1.590998
405.400 1.581213
405.500 1.582192
405.600 1.585127
405.700 1.590020
405.800 1.591977
405.900 1.595890
406.000 1.598826
406.100 1.589041
406.200 1.571429
406.300 1.554795
406.400 1.541096
406.500 1.520548
406.600 1.520548
406.700 1.524462
406.800 1.523483
406.900 1.523483
407.000 1.513699
407.100 1.494129
407.200 1.484344
407.300 1.485323
407.400 1.490215
407.500 1.490215
407.600 1.474560
407.700 1.459883
407.800 1.452055
407.900 1.459883
408.000 1.470646
408.100 1.472603
408.200 1.468689
408.300 1.458904
408.400 1.447162
408.500 1.433464
408.600 1.421722
408.700 1.414873
408.800 1.405088
408.900 1.395303
409.000 1.373777
409.100 1.353229
409.200 1.331703
409.300 1.296477
409.400 1.265166
409.500 1.213307
409.600 1.162427
409.700 1.105675
409.800 1.028376
409.900 0.945597
410.000 0.835714
410.100 0.756360
410.200 0.731996
410.300 0.785029
410.400 0.878376
410.500 0.985323
410.600 1.054795
410.700 1.119374
410.800 1.168297
410.900 1.208415
411.000 1.249511
411.100 1.278865
411.200 1.311155
411.300 1.336595
411.400 1.360078
411.500 1.383562
411.600 1.400196
411.700 1.409980
411.800 1.411937
411.900 1.413894
412.000 1.417808
412.100 1.425636
412.200 1.434442
412.300 1.444227
412.400 1.456947
412.500 1.467710
412.600 1.466732
412.700 1.459883
412.800 1.454012
412.900 1.452055
413.000 1.451076
413.100 1.451076
413.200 1.454990
413.300 1.462818
413.400 1.480431
413.500 1.491194
413.600 1.499022
413.700 1.505871
413.800 1.513699
413.900 1.521526
414.000 1.520548
414.100 1.510763
414.200 1.497065
414.300 1.483366
414.400 1.480431
414.500 1.487280
414.600 1.500000
414.700 1.505871
414.800 1.506849
414.900 1.506849
415.000 1.510763
415.100 1.516634
415.200 1.516634
415.300 1.512720
415.400 1.507828
