# Wavelength (nm)   F_lamA (normalized erg/cm2/s/A)9.100 0.000812
9.400 0.000918
9.600 0.000990
9.800 0.001064
10.000 0.001139
10.200 0.001216
10.400 0.001294
10.600 0.001374
10.800 0.001455
11.000 0.001537
11.400 0.001706
11.800 0.001884
12.100 0.002026
12.500 0.002230
12.700 0.002341
12.800 0.002399
13.100 0.002586
13.200 0.002653
13.400 0.002797
13.700 0.003039
14.000 0.003316
14.300 0.003642
14.700 0.004166
15.100 0.004819
15.500 0.005631
15.900 0.006634
16.200 0.007540
16.600 0.008982
17.000 0.010730
17.300 0.012268
17.700 0.014666
18.000 0.016749
18.200 0.018282
18.600 0.021730
19.100 0.026811
19.400 0.030303
19.800 0.035510
20.200 0.041424
20.500 0.046308
21.000 0.055399
21.600 0.067932
22.000 0.077317
22.300 0.084907
22.700 0.095793
23.000 3.021477
23.400 3.327449
24.000 4.289497
24.600 5.863489
25.200 7.163872
25.700 5.542807
26.000 7.914092
26.400 9.988232
26.900 10.164754
27.400 10.320683
27.900 9.923507
28.400 10.438364
29.000 10.388350
29.600 9.549868
30.100 6.619594
30.800 8.225949
31.800 10.238305
32.800 10.261842
33.800 10.058841
34.800 9.873492
35.700 10.017652
36.600 10.132392
37.500 9.961753
38.500 9.432186
39.500 9.670491
40.500 9.685202
41.400 9.552810
42.200 9.311562
43.000 9.155634
44.100 9.164460
45.100 9.011474
46.000 8.764342
47.000 8.611356
48.000 8.531921
49.000 8.261253
50.000 8.240659
50.600 8.864372
51.200 10.503089
52.000 10.300088
53.000 10.114740
54.000 9.582230
55.000 9.467490
56.000 9.720506
57.000 9.591056
58.000 9.293910
59.000 9.249779
60.000 8.979112
61.000 8.723154
62.000 8.814357
63.000 8.626066
64.000 8.534863
65.000 8.343630
65.800 8.134746
66.500 8.146514
67.500 8.058252
68.500 7.766990
69.500 7.784643
70.500 7.484554
71.600 7.525743
72.600 7.416887
73.500 7.316858
74.500 7.157988
75.500 7.028538
76.500 6.852015
77.500 6.793174
78.500 6.672551
79.500 6.572521
80.500 6.487202
81.500 6.395999
82.500 6.310680
83.500 6.048838
84.500 6.101795
85.500 5.992939
86.500 5.931156
87.500 5.842895
88.500 5.751692
89.500 5.660488
90.500 5.536923
91.500 5.913504
92.500 10.297146
93.500 14.424831
94.500 21.238600
95.500 24.330685
96.500 28.387761
97.500 17.140335
98.500 30.155928
99.500 29.685202
100.500 30.656075
101.500 27.255075
102.500 15.663430
103.500 24.963224
104.500 29.352751
105.500 29.479259
106.500 28.005296
107.500 28.393645
108.500 26.481318
109.500 27.605178
110.500 26.634304
111.500 26.166520
112.500 24.919094
113.500 25.163283
114.500 24.221830
115.500 23.954104
116.500 23.533392
117.500 21.106208
118.500 21.953516
119.500 20.253016
120.500 17.728744
121.500 10.706090
122.500 16.902030
123.500 19.037952
124.500 19.358635
125.500 19.376287
126.500 18.926155
127.500 19.020300
128.500 18.805531
129.500 18.070021
130.500 17.737570
131.500 17.872904
132.500 17.408061
133.500 16.922624
134.500 16.946161
135.500 16.643130
136.500 16.254781
137.500 15.975287
138.500 15.769344
139.500 15.001471
140.500 14.713151
141.500 14.927920
142.500 14.639600
143.500 14.416005
144.200 14.289497
144.700 14.165931
145.500 13.951162
146.500 13.677552
147.500 13.456899
148.500 13.236246
149.500 12.992056
150.500 12.747867
151.200 12.562518
151.700 12.494851
152.500 12.277140
153.500 11.888791
154.500 11.656370
155.500 11.409238
156.500 11.320977
157.500 11.247426
158.500 11.120918
159.500 10.994410
160.500 10.659017
161.500 10.494263
162.500 10.303030
163.500 10.132392
164.500 9.829362
165.500 9.829362
166.500 9.808767
167.200 9.546926
167.700 9.620477
168.500 9.529273
169.500 9.346867
170.500 9.164460
171.500 8.982054
172.500 8.849662
173.500 8.814357
174.500 8.640777
175.500 8.558400
176.500 8.308326
177.500 8.293616
178.500 8.170050
179.500 8.084731
180.500 7.978817
181.500 7.837599
182.500 7.731686
183.500 7.616946
184.500 7.431598
185.500 7.284495
186.500 7.210944
187.500 7.178582
188.500 7.002059
189.500 6.860841
190.500 6.854957
191.500 6.696087
192.500 6.593116
193.500 6.546043
194.500 6.516623
195.500 6.345984
196.700 6.325390
197.600 6.269491
198.400 6.166520
199.500 6.025302
200.500 5.998823
201.500 5.925272
202.500 5.869373
203.500 5.778170
204.500 5.707561
205.500 5.269197
206.500 5.325096
207.400 5.525154
207.800 5.466314
208.500 5.442777
209.500 5.351574
210.500 5.313327
211.500 5.266255
212.500 5.207414
213.500 5.122095
214.500 5.066196
215.500 5.022065
216.500 4.922036
217.500 4.877905
218.500 4.813180
219.500 4.792586
220.500 4.713151
221.500 4.627832
222.500 4.574875
223.500 4.560165
224.500 4.492498
225.500 4.404237
226.500 4.371874
227.500 4.336570
228.500 4.295381
229.500 4.204178
230.500 4.168873
231.500 4.133569
232.500 3.898205
233.500 4.024713
234.500 3.936452
235.500 3.939394
236.500 3.857017
237.500 3.839365
238.500 3.736393
239.500 3.748161
240.500 3.698147
241.500 3.662842
242.500 3.648132
243.500 3.592233
244.500 3.565755
245.500 3.530450
246.500 3.477493
247.500 3.439247
248.500 3.415711
249.500 3.327449
250.500 3.356870
251.300 3.262724
251.800 3.295087
252.500 3.250956
253.500 3.209768
254.500 3.183289
255.500 3.177405
256.500 3.139159
257.500 3.124448
258.500 3.095028
259.500 3.056781
260.500 3.018535
261.500 2.983230
262.500 2.962636
263.500 2.938511
264.500 2.950868
265.500 2.922624
266.500 2.877023
267.500 2.860253
268.500 2.843483
269.500 2.796999
270.500 2.781112
271.500 2.742866
272.500 2.706090
273.500 2.686967
274.500 2.634304
275.500 2.618123
276.500 2.605766
277.500 2.607826
278.500 2.576934
279.500 2.478376
280.500 2.488967
281.500 2.522212
282.500 2.490438
283.500 2.465431
284.500 2.444543
285.500 2.414534
286.500 2.407473
287.500 2.385113
288.500 2.368932
289.500 2.349515
291.000 2.329803
293.000 2.283024
295.000 2.236540
297.000 2.209768
299.000 2.174463
301.000 2.137393
303.000 2.098264
305.000 2.060018
307.000 2.021183
309.000 1.986172
311.000 1.949397
313.000 1.913798
315.000 1.881730
317.000 1.851427
319.000 1.805531
321.000 1.783466
323.000 1.753457
325.000 1.730215
327.000 1.706973
329.000 1.679612
331.000 1.655193
332.200 1.631068
332.300 1.645778
332.400 1.638423
332.500 1.629597
332.600 1.614298
332.700 1.597529
332.800 1.600471
332.900 1.607532
333.000 1.614593
333.100 1.616652
333.200 1.609885
333.300 1.597529
333.400 1.586643
333.500 1.581053
333.600 1.569285
333.700 1.552221
333.800 1.545160
333.900 1.549279
334.000 1.547220
334.100 1.556340
334.200 1.558694
334.300 1.583113
334.400 1.606061
334.500 1.616064
334.600 1.627538
334.700 1.626655
334.800 1.602236
334.900 1.558400
335.000 1.503972
335.100 1.505737
335.200 1.531627
335.300 1.546631
335.400 1.546043
335.500 1.532215
335.600 1.529568
335.700 1.534863
335.800 1.532215
335.900 1.523683
336.000 1.523095
336.100 1.517505
336.200 1.528979
336.300 1.528391
336.400 1.526920
336.500 1.514269
336.600 1.500441
336.700 1.490438
336.800 1.482201
336.900 1.485143
337.000 1.501030
337.100 1.504266
337.200 1.488967
337.300 1.487202
337.400 1.498088
337.500 1.527214
337.600 1.541924
337.700 1.517505
337.800 1.497205
337.900 1.486320
338.000 1.497793
338.100 1.517799
338.200 1.538099
338.300 1.551633
338.400 1.548691
338.500 1.547808
338.600 1.543689
338.700 1.536628
338.800 1.533981
338.900 1.533981
339.000 1.539276
339.100 1.546043
339.200 1.546043
339.300 1.541336
339.400 1.551927
339.500 1.559576
339.600 1.564872
339.700 1.555752
339.800 1.544572
339.900 1.514269
340.000 1.489556
340.100 1.496322
340.200 1.483377
340.300 1.481612
340.400 1.482201
340.500 1.485731
340.600 1.475140
340.700 1.473080
340.800 1.484554
340.900 1.493675
341.000 1.497499
341.100 1.478964
341.200 1.483083
341.300 1.501618
341.400 1.519270
341.500 1.521918
341.600 1.521330
341.700 1.520741
341.800 1.526331
341.900 1.533686
342.000 1.533981
342.100 1.532215
342.200 1.522801
342.300 1.516328
342.400 1.513386
342.500 1.510444
342.600 1.517211
342.700 1.523683
342.800 1.531333
342.900 1.535746
343.000 1.521036
343.100 1.515446
343.200 1.513386
343.300 1.518976
343.400 1.524272
343.500 1.525449
343.600 1.528096
343.700 1.528391
343.800 1.529273
343.900 1.519859
344.000 1.498382
344.100 1.479553
344.200 1.473375
344.300 1.478376
344.400 1.483083
344.500 1.484260
344.600 1.493969
344.700 1.504266
344.800 1.523389
344.900 1.535157
345.000 1.500736
345.100 1.461312
345.200 1.442483
345.300 1.435422
345.400 1.445719
345.500 1.448073
345.600 1.446896
345.700 1.446308
345.800 1.441306
345.900 1.441012
346.000 1.437482
346.100 1.435716
346.200 1.442189
346.300 1.467196
346.400 1.456016
346.500 1.453957
346.600 1.456605
346.700 1.456605
346.800 1.456605
346.900 1.458076
347.000 1.467490
347.100 1.463960
347.200 1.457487
347.300 1.449544
347.400 1.447779
347.500 1.442777
347.600 1.440718
347.700 1.429832
347.800 1.416887
347.900 1.409238
348.000 1.419241
348.100 1.431303
348.200 1.422477
348.300 1.408650
348.400 1.408061
348.500 1.431303
348.600 1.453663
348.700 1.464548
348.800 1.472198
348.900 1.465137
349.000 1.453074
349.100 1.451015
349.200 1.462195
349.300 1.466314
349.400 1.459253
349.500 1.445425
349.600 1.437482
349.700 1.443660
349.800 1.451603
349.900 1.450721
350.000 1.427479
350.100 1.414534
350.200 1.421889
350.300 1.426302
350.400 1.417182
350.500 1.401883
350.600 1.394234
350.700 1.396293
350.800 1.405413
350.900 1.409826
351.000 1.414534
351.100 1.417182
351.200 1.413651
351.300 1.401589
351.400 1.395705
351.500 1.403648
351.600 1.414828
351.700 1.419241
351.800 1.422183
351.900 1.421006
352.000 1.420124
352.100 1.415416
352.200 1.408944
352.300 1.409532
352.400 1.414239
352.500 1.413357
352.600 1.415416
352.700 1.413651
352.800 1.415711
352.900 1.422771
353.000 1.431303
353.100 1.438953
353.200 1.446308
353.300 1.440129
353.400 1.423654
353.500 1.416593
353.600 1.416887
353.700 1.413063
353.800 1.415416
353.900 1.418358
354.000 1.424537
354.100 1.426596
354.200 1.426302
354.300 1.426302
354.400 1.430127
354.500 1.432774
354.600 1.435128
354.700 1.440424
354.800 1.444248
354.900 1.439541
355.000 1.434540
355.100 1.436893
355.200 1.441012
355.300 1.440424
355.400 1.430127
355.500 1.423948
355.600 1.426008
355.700 1.433363
355.800 1.435422
355.900 1.429244
356.000 1.421595
356.100 1.425713
356.200 1.431303
356.300 1.427773
356.400 1.416593
356.500 1.408061
356.600 1.407767
356.700 1.406296
356.800 1.411003
356.900 1.406296
357.000 1.391586
357.100 1.360989
357.200 1.343630
357.300 1.341865
357.400 1.342454
357.500 1.346573
357.600 1.355104
357.700 1.355987
357.800 1.352457
357.900 1.348338
358.000 1.348926
358.100 1.349809
358.200 1.345396
358.300 1.343336
358.400 1.343042
358.500 1.337746
358.600 1.329509
358.700 1.323919
358.800 1.319506
358.900 1.325390
359.000 1.336275
359.100 1.339217
359.200 1.336864
359.300 1.338335
359.400 1.340394
359.500 1.343925
359.600 1.345984
359.700 1.349515
359.800 1.355693
359.900 1.359812
360.000 1.363636
360.100 1.358929
360.200 1.358635
360.300 1.352457
360.400 1.347161
360.500 1.346573
360.600 1.348926
360.700 1.350691
360.800 1.354810
360.900 1.360400
361.000 1.362754
361.100 1.357752
361.200 1.354810
361.300 1.351574
361.400 1.349809
361.500 1.350691
361.600 1.355693
361.700 1.361577
361.800 1.366284
361.900 1.368932
362.000 1.363931
362.100 1.363636
362.200 1.376287
362.300 1.382465
362.400 1.378641
362.500 1.380994
362.600 1.388938
362.700 1.397470
362.800 1.396587
362.900 1.385407
363.000 1.375405
363.100 1.369520
363.200 1.369226
363.300 1.378052
363.400 1.393057
363.500 1.391292
363.600 1.364813
363.700 1.350986
363.800 1.353633
363.900 1.358635
364.000 1.360400
364.100 1.360400
364.200 1.358635
364.300 1.351868
364.400 1.344513
364.500 1.344807
364.600 1.340394
364.700 1.341277
364.800 1.343925
364.900 1.343336
365.000 1.343925
365.100 1.343042
365.200 1.344807
365.300 1.346867
365.400 1.348044
365.500 1.348926
365.600 1.352751
365.700 1.351280
365.800 1.349809
365.900 1.347161
366.000 1.338041
366.100 1.335099
366.200 1.331568
366.300 1.336275
366.400 1.339806
366.500 1.338041
366.600 1.335981
366.700 1.329803
366.800 1.326567
366.900 1.330097
367.000 1.334804
367.100 1.335687
367.200 1.337158
367.300 1.332745
367.400 1.327449
367.500 1.317152
367.600 1.311268
367.700 1.308032
367.800 1.305972
367.900 1.308914
368.000 1.312739
368.100 1.319212
368.200 1.316858
368.300 1.313327
368.400 1.313033
368.500 1.307738
368.600 1.298029
368.700 1.296558
368.800 1.314210
368.900 1.338335
369.000 1.338335
369.100 1.315681
369.200 1.316858
369.300 1.335687
369.400 1.356281
369.500 1.354222
369.600 1.320977
369.700 1.303913
369.800 1.309797
369.900 1.351574
370.000 1.398647
370.100 1.403942
370.200 1.363342
370.300 1.285378
370.400 1.246249
370.500 1.245366
370.600 1.299206
370.700 1.354222
370.800 1.398941
370.900 1.378347
371.000 1.318329
371.100 1.256840
371.200 1.222124
371.300 1.244189
371.400 1.309209
371.500 1.411592
371.600 1.473375
371.700 1.508091
371.800 1.497205
371.900 1.428950
372.000 1.307443
372.100 1.233304
372.200 1.188585
372.300 1.223301
372.400 1.309209
372.500 1.420712
372.600 1.482495
372.700 1.546926
372.800 1.573404
372.900 1.578994
373.000 1.554869
373.100 1.482201
373.200 1.357752
373.300 1.254487
373.400 1.163578
373.500 1.147690
373.600 1.203589
373.700 1.322154
373.800 1.426890
373.900 1.554281
374.000 1.624301
374.100 1.674022
374.200 1.688144
374.300 1.676670
374.400 1.647543
374.500 1.600177
374.600 1.519859
374.700 1.416299
374.800 1.304501
374.900 1.175346
375.000 1.129744
375.100 1.148573
375.200 1.237717
375.300 1.351574
375.400 1.479553
375.500 1.558988
375.600 1.635187
375.700 1.662254
375.800 1.673433
375.900 1.671080
376.000 1.664607
376.100 1.663725
376.200 1.684025
376.300 1.680788
376.400 1.657841
376.500 1.604884
376.600 1.531333
376.700 1.453369
376.800 1.332451
376.900 1.210944
377.000 1.117682
377.100 1.082377
377.200 1.149750
377.300 1.274198
377.400 1.382760
377.500 1.490733
377.600 1.575463
377.700 1.644307
377.800 1.714034
377.900 1.756693
378.000 1.799941
378.100 1.822889
378.200 1.840247
378.300 1.842895
378.400 1.844072
378.500 1.845543
378.600 1.837011
378.700 1.819947
378.800 1.801412
378.900 1.776111
379.000 1.739629
379.100 1.698735
379.200 1.636069
379.300 1.566343
379.400 1.478376
379.500 1.348338
379.600 1.229185
379.700 1.106796
379.800 1.050309
379.900 1.085908
380.000 1.205355
380.100 1.329509
380.200 1.465725
380.300 1.551927
380.400 1.631656
380.500 1.691968
380.600 1.729332
380.700 1.769932
380.800 1.801706
380.900 1.838188
381.000 1.867020
381.100 1.884084
381.200 1.878199
381.300 1.863783
381.400 1.850544
381.500 1.851427
381.600 1.851721
381.700 1.849073
381.800 1.836422
381.900 1.810533
382.000 1.790821
382.100 1.785231
382.200 1.802001
382.300 1.804648
382.400 1.786114
382.500 1.758164
382.600 1.719623
382.700 1.691380
382.800 1.649014
382.900 1.592527
383.000 1.532510
383.100 1.444543
383.200 1.353045
383.300 1.228891
383.400 1.087084
383.500 1.022065
383.600 1.013533
383.700 1.086790
383.800 1.200647
383.900 1.323036
384.000 1.422771
384.100 1.528685
384.200 1.597823
384.300 1.672551
384.400 1.719918
384.500 1.763166
384.600 1.796117
384.700 1.817299
384.800 1.834069
384.900 1.843189
385.000 1.852604
385.100 1.870256
385.200 1.881730
385.300 1.884378
385.400 1.879376
385.500 1.872021
385.600 1.865254
385.700 1.868197
385.800 1.882907
385.900 1.897911
386.000 1.907031
386.100 1.906149
386.200 1.888497
386.300 1.854369
386.400 1.849662
386.500 1.853781
386.600 1.860253
386.700 1.869962
386.800 1.876728
386.900 1.876728
387.000 1.866726
387.100 1.851133
387.200 1.828479
387.300 1.817299
387.400 1.817593
387.500 1.820830
387.600 1.810827
387.700 1.786114
387.800 1.763754
387.900 1.738452
388.000 1.716976
388.100 1.682259
388.200 1.627538
388.300 1.574875
388.400 1.502501
388.500 1.412474
388.600 1.301265
388.700 1.153575
388.800 1.042954
388.900 0.986761
389.000 1.023536
389.100 1.133863
389.200 1.277140
389.300 1.383348
389.400 1.483083
389.500 1.548102
389.600 1.611356
389.700 1.665784
389.800 1.699323
389.900 1.726096
390.000 1.744337
390.100 1.774934
390.200 1.806708
390.300 1.827302
390.400 1.835540
390.500 1.836717
390.600 1.839365
390.700 1.852898
390.800 1.879965
390.900 1.906737
391.000 1.916446
391.100 1.921153
391.200 1.914681
391.300 1.900265
391.400 1.887614
391.500 1.889085
391.600 1.900265
391.700 1.905855
391.800 1.904972
391.900 1.896146
392.000 1.895852
392.100 1.898205
392.200 1.894381
392.300 1.885555
392.400 1.881142
392.500 1.886143
392.600 1.881142
392.700 1.875846
392.800 1.858782
392.900 1.839659
393.000 1.819064
393.100 1.772874
393.200 1.676081
393.300 1.558105
393.400 1.543395
393.500 1.616358
393.600 1.715210
393.700 1.781995
393.800 1.827302
393.900 1.852898
394.000 1.873786
394.100 1.888202
394.200 1.891144
394.300 1.881730
394.400 1.868785
394.500 1.852604
394.600 1.844366
394.700 1.845837
394.800 1.845837
394.900 1.839953
395.000 1.831421
395.100 1.820241
395.200 1.810238
395.300 1.808473
395.400 1.805531
395.500 1.792586
395.600 1.773463
395.700 1.751397
395.800 1.737570
395.900 1.719329
396.000 1.687849
396.100 1.650780
396.200 1.599000
396.300 1.553104
396.400 1.485143
396.500 1.401883
396.600 1.292145
396.700 1.122389
396.800 0.968520
396.900 0.864078
397.000 0.844660
397.100 0.912916
397.200 1.041189
397.300 1.167402
397.400 1.298323
397.500 1.393645
397.600 1.476317
397.700 1.542513
397.800 1.580465
397.900 1.629009
398.000 1.659017
398.100 1.688438
398.200 1.709620
398.300 1.724625
398.400 1.746102
398.500 1.764342
398.600 1.773757
398.700 1.772286
398.800 1.794057
398.900 1.804060
399.000 1.812592
399.100 1.820830
399.200 1.824654
399.300 1.830833
399.400 1.833775
399.500 1.837305
399.600 1.832304
399.700 1.828773
399.800 1.827891
399.900 1.831127
400.000 1.824066
400.100 1.815534
400.200 1.813769
400.300 1.809944
400.400 1.810238
400.500 1.810827
400.600 1.813475
400.700 1.815534
400.800 1.819064
400.900 1.817888
401.000 1.817005
401.100 1.819359
401.200 1.824949
401.300 1.829067
401.400 1.829950
401.500 1.832892
401.600 1.840541
401.700 1.850838
401.800 1.859959
401.900 1.864372
402.000 1.862901
402.100 1.856723
402.200 1.844366
402.300 1.819947
402.400 1.788467
402.500 1.762283
402.600 1.756105
402.700 1.773463
402.800 1.797293
402.900 1.817005
403.000 1.831421
403.100 1.835834
403.200 1.840247
403.300 1.842012
403.400 1.845543
403.500 1.853781
403.600 1.859665
403.700 1.863195
403.800 1.864960
403.900 1.862018
404.000 1.862607
404.100 1.862607
404.200 1.857311
404.300 1.850838
404.400 1.837893
404.500 1.824360
404.600 1.817593
404.700 1.825831
404.800 1.837305
404.900 1.846425
405.000 1.848485
405.100 1.847602
405.200 1.844366
405.300 1.834951
405.400 1.830538
405.500 1.835834
405.600 1.839070
405.700 1.842012
405.800 1.842307
405.900 1.844072
406.000 1.843778
406.100 1.832598
406.200 1.820241
406.300 1.809650
406.400 1.791115
406.500 1.752868
406.600 1.750221
406.700 1.758458
406.800 1.759341
406.900 1.758753
407.000 1.750809
407.100 1.738158
407.200 1.731392
407.300 1.728155
407.400 1.731686
407.500 1.730509
407.600 1.717564
407.700 1.706678
407.800 1.700500
407.900 1.707855
408.000 1.719329
408.100 1.723742
408.200 1.720800
408.300 1.711974
408.400 1.699912
408.500 1.687555
408.600 1.675787
408.700 1.671374
408.800 1.664019
408.900 1.657546
409.000 1.638717
409.100 1.618711
409.200 1.594587
409.300 1.556046
409.400 1.519565
409.500 1.463960
409.600 1.406884
409.700 1.340688
409.800 1.248603
409.900 1.148867
410.000 1.025890
410.100 0.928214
410.200 0.900559
410.300 0.957046
410.400 1.069726
410.500 1.198588
410.600 1.287732
410.700 1.362754
410.800 1.420418
410.900 1.461312
411.000 1.502207
411.100 1.532510
411.200 1.565460
411.300 1.589879
411.400 1.613710
411.500 1.635775
411.600 1.652545
411.700 1.658135
411.800 1.654310
411.900 1.654016
412.000 1.655487
412.100 1.659312
412.200 1.663725
412.300 1.671374
412.400 1.683436
412.500 1.695204
412.600 1.688438
412.700 1.672551
412.800 1.659312
412.900 1.652839
413.000 1.652839
413.100 1.660488
413.200 1.669315
413.300 1.681083
413.400 1.698441
413.500 1.707561
413.600 1.714328
413.700 1.719035
413.800 1.726979
413.900 1.732863
414.000 1.732274
414.100 1.724625
414.200 1.710503
414.300 1.696381
414.400 1.689026
414.500 1.695499
414.600 1.708149
414.700 1.716387
414.800 1.717270
414.900 1.716093
415.000 1.719918
