# Wavelength (nm)   F_lamA (normalized erg/cm2/s/A)9.100 0.000000
9.400 0.000001
9.600 0.000001
9.800 0.000002
10.000 0.000003
10.200 0.000005
10.400 0.000007
10.600 0.000011
10.800 0.000016
11.000 0.000022
11.400 0.000044
11.800 0.000081
12.100 0.000125
12.500 0.000215
12.700 0.000278
12.800 0.000315
13.100 0.000453
13.200 0.000509
13.400 0.000638
13.700 0.000884
14.000 0.001206
14.300 0.001619
14.700 0.002348
15.100 0.003327
15.500 0.004616
15.900 0.006282
16.200 0.007825
16.600 0.010329
17.000 0.013423
17.300 0.016185
17.700 0.020523
18.000 0.024317
18.200 0.027129
18.600 0.033474
19.100 0.042875
19.400 0.049368
19.800 0.059106
20.200 0.070110
20.500 0.079258
21.000 0.096290
21.600 0.119815
22.000 0.137437
22.300 0.151728
22.700 0.172218
23.000 5.674536
23.400 6.252108
24.000 8.073356
24.600 11.045531
25.200 13.503373
25.700 10.438449
26.000 14.919899
26.400 18.840641
26.900 19.173693
27.400 19.473019
27.900 18.718381
28.400 19.696459
29.000 19.599494
29.600 18.014334
30.100 12.478921
30.800 15.514334
31.800 19.317032
32.800 19.367622
33.800 18.983980
34.800 18.638280
35.700 18.903879
36.600 19.123103
37.500 18.806914
38.500 17.799325
39.500 18.254637
40.500 18.279933
41.400 18.035413
42.200 17.580101
43.000 17.280776
44.100 17.306071
45.100 17.015177
46.000 16.547218
47.000 16.256324
48.000 16.108769
49.000 15.598651
50.000 15.556492
50.600 16.736931
51.200 19.835582
52.000 19.447723
53.000 19.097808
54.000 18.098651
55.000 17.879427
56.000 18.355818
57.000 18.115514
58.000 17.550590
59.000 17.466273
60.000 16.956155
61.000 16.475548
62.000 16.644182
63.000 16.290051
64.000 16.117201
65.000 15.754637
65.800 15.362563
66.500 15.387858
67.500 15.219224
68.500 14.671164
69.500 14.700675
70.500 14.131535
71.600 14.215852
72.600 14.005059
73.500 13.815346
74.500 13.520236
75.500 13.275717
76.500 12.942664
77.500 12.828836
78.500 12.601180
79.500 12.411467
80.500 12.251265
81.500 12.078415
82.500 11.918212
83.500 11.420742
84.500 11.526138
85.500 11.319562
86.500 11.201518
87.500 11.037099
88.500 10.864250
89.500 10.691400
90.500 10.455312
91.500 11.163575
92.500 19.435076
93.500 27.217538
94.500 39.932546
95.500 45.236088
96.500 52.529511
97.500 32.120573
98.500 54.131535
99.500 52.023609
100.500 53.878583
101.500 49.494098
102.500 29.477234
103.500 45.657673
104.500 51.264755
105.500 50.590219
106.500 47.807757
107.500 48.102867
108.500 44.730185
109.500 46.627319
110.500 45.025295
111.500 44.182125
112.500 42.032040
113.500 42.411467
114.500 40.885329
115.500 40.434233
116.500 39.688027
117.500 35.564924
118.500 37.449410
119.500 35.459528
120.500 32.158516
121.500 20.105396
122.500 30.855818
123.500 33.153457
124.500 32.921585
125.500 32.630691
126.500 31.901349
127.500 31.690556
128.500 31.155143
129.500 29.890388
130.500 29.397133
131.500 29.422428
132.500 28.617201
133.500 27.811973
134.500 27.731872
135.500 27.251265
136.500 26.597808
137.500 26.096121
138.500 25.687184
139.500 24.300169
140.500 23.768971
141.500 24.249578
142.500 23.731029
143.500 23.372681
144.200 23.123946
144.700 22.904722
145.500 22.537943
146.500 22.091062
147.500 21.703204
148.500 21.332209
149.500 20.927487
150.500 20.489039
151.200 20.181282
151.700 20.050590
152.500 19.717538
153.500 19.055649
154.500 18.575042
155.500 18.208263
156.500 18.157673
157.500 17.993255
158.500 17.752951
159.500 17.495784
160.500 16.968803
161.500 16.682125
162.500 16.420742
163.500 16.112985
164.500 15.556492
165.500 15.678752
166.500 15.526981
167.200 15.168634
167.700 15.265599
168.500 15.075885
169.500 14.784992
170.500 14.498314
171.500 14.169477
172.500 13.967116
173.500 13.865936
174.500 13.600337
175.500 13.431703
176.500 13.086003
177.500 12.989039
178.500 12.803541
179.500 12.639123
180.500 12.466273
181.500 12.230185
182.500 12.053120
183.500 11.867622
184.500 11.568297
185.500 11.323777
186.500 11.209949
187.500 11.138280
188.500 10.843170
189.500 10.602867
190.500 10.594435
191.500 10.337268
192.500 10.160202
193.500 10.101180
194.500 10.029511
195.500 9.747049
196.700 9.709106
197.600 9.629005
198.400 9.456155
199.500 9.228499
200.500 9.194772
201.500 9.085160
202.500 8.992411
203.500 8.827993
204.500 8.705734
205.500 7.934233
206.500 8.048061
207.400 8.414840
207.800 8.317875
208.500 8.275717
209.500 8.132378
210.500 8.069140
211.500 7.993255
212.500 7.900506
213.500 7.774030
214.500 7.668634
215.500 7.601180
216.500 7.457841
217.500 7.386172
218.500 7.268128
219.500 7.225970
220.500 7.112142
221.500 6.977234
222.500 6.905565
223.500 6.846543
224.500 6.749578
225.500 6.618887
226.500 6.568297
227.500 6.496627
228.500 6.424958
229.500 6.285835
230.500 6.222597
231.500 6.172007
232.500 5.851602
233.500 6.007589
234.500 5.902192
235.500 5.868465
236.500 5.767285
237.500 5.716695
238.500 5.577572
239.500 5.569140
240.500 5.497470
241.500 5.438449
242.500 5.392074
243.500 5.316189
244.500 5.261383
245.500 5.206577
246.500 5.134907
247.500 5.071669
248.500 5.025295
249.500 4.886172
250.500 4.915683
251.300 4.768128
251.800 4.831366
252.500 4.780776
253.500 4.717538
254.500 4.666948
255.500 4.637437
256.500 4.578415
257.500 4.544688
258.500 4.494098
259.500 4.439292
260.500 4.384486
261.500 4.333895
262.500 4.295953
263.500 4.249578
264.500 4.241147
265.500 4.195616
266.500 4.135329
267.500 4.098651
268.500 4.070826
269.500 4.003373
270.500 3.978499
271.500 3.927487
272.500 3.868465
273.500 3.827572
274.500 3.778668
275.500 3.745784
276.500 3.707420
277.500 3.701518
278.500 3.657673
279.500 3.558179
280.500 3.550169
281.500 3.559022
282.500 3.507167
283.500 3.473019
284.500 3.445616
285.500 3.405987
286.500 3.382378
287.500 3.347808
288.500 3.319562
289.500 3.287521
291.000 3.248735
293.000 3.180860
295.000 3.107504
297.000 3.064503
299.000 3.008010
301.000 2.945194
303.000 2.881113
305.000 2.818718
307.000 2.756745
309.000 2.699831
311.000 2.641653
313.000 2.584739
315.000 2.533305
317.000 2.483137
319.000 2.414840
321.000 2.375632
323.000 2.332209
325.000 2.290472
327.000 2.250000
329.000 2.206577
331.000 2.167369
332.200 2.170320
332.300 2.187184
332.400 2.174536
332.500 2.168634
332.600 2.151349
332.700 2.135750
332.800 2.133221
332.900 2.137437
333.000 2.140809
333.100 2.138280
333.200 2.126897
333.300 2.106661
333.400 2.095278
333.500 2.090641
333.600 2.085582
333.700 2.067875
333.800 2.041737
333.900 2.037521
334.000 2.029511
334.100 2.051855
334.200 2.064924
334.300 2.100759
334.400 2.129427
334.500 2.146712
334.600 2.169056
334.700 2.172428
334.800 2.139966
334.900 2.076307
335.000 1.987774
335.100 1.994941
335.200 2.031197
335.300 2.051433
335.400 2.048061
335.500 2.024452
335.600 2.020658
335.700 2.026560
335.800 2.029511
335.900 2.025717
336.000 2.036678
336.100 2.029933
336.200 2.040894
336.300 2.031619
336.400 2.027403
336.500 2.008010
336.600 1.988196
336.700 1.972597
336.800 1.961214
336.900 1.967538
337.000 1.998735
337.100 2.004637
337.200 1.981872
337.300 1.975970
337.400 1.985666
337.500 2.024452
337.600 2.038364
337.700 2.000422
337.800 1.977656
337.900 1.966273
338.000 1.988196
338.100 2.016020
338.200 2.040051
338.300 2.047218
338.400 2.040051
338.500 2.040472
338.600 2.043423
338.700 2.041315
338.800 2.037943
338.900 2.029933
339.000 2.032040
339.100 2.036678
339.200 2.040894
339.300 2.041315
339.400 2.058600
339.500 2.065346
339.600 2.062395
339.700 2.038786
339.800 2.018128
339.900 1.977234
340.000 1.954047
340.100 1.972597
340.200 1.954047
340.300 1.944351
340.400 1.944351
340.500 1.949410
340.600 1.938449
340.700 1.943508
340.800 1.956577
340.900 1.968803
341.000 1.973019
341.100 1.940556
341.200 1.946459
341.300 1.968803
341.400 1.994941
341.500 2.005481
341.600 2.007589
341.700 2.008010
341.800 2.012226
341.900 2.019815
342.000 2.017707
342.100 2.013912
342.200 2.002530
342.300 1.996206
342.400 1.994098
342.500 1.991568
342.600 2.004216
342.700 2.011383
342.800 2.018128
342.900 2.017707
343.000 1.996206
343.100 1.997892
343.200 1.998314
343.300 2.007589
343.400 2.008853
343.500 2.007167
343.600 2.011383
343.700 2.009696
343.800 2.014755
343.900 2.003794
344.000 1.972175
344.100 1.949831
344.200 1.941400
344.300 1.955734
344.400 1.967538
344.500 1.959949
344.600 1.962479
344.700 1.966695
344.800 1.988196
344.900 2.001686
345.000 1.954047
345.100 1.911467
345.200 1.891653
345.300 1.886594
345.400 1.895868
345.500 1.898820
345.600 1.900506
345.700 1.900084
345.800 1.894182
345.900 1.892496
346.000 1.886594
346.100 1.883221
346.200 1.891653
346.300 1.930860
346.400 1.913153
346.500 1.915683
346.600 1.922007
346.700 1.919477
346.800 1.914840
346.900 1.909781
347.000 1.919056
347.100 1.908938
347.200 1.905143
347.300 1.910624
347.400 1.913575
347.500 1.905987
347.600 1.896290
347.700 1.864671
347.800 1.836003
347.900 1.820405
348.000 1.835160
348.100 1.858347
348.200 1.844857
348.300 1.822091
348.400 1.820826
348.500 1.855818
348.600 1.887858
348.700 1.906830
348.800 1.928331
348.900 1.925379
349.000 1.910202
349.100 1.905987
349.200 1.922007
349.300 1.927066
349.400 1.916948
349.500 1.901771
349.600 1.892074
349.700 1.898398
349.800 1.907251
349.900 1.900084
350.000 1.867201
350.100 1.850337
350.200 1.860034
350.300 1.868465
350.400 1.854132
350.500 1.830944
350.600 1.819983
350.700 1.823356
350.800 1.841062
350.900 1.847386
351.000 1.850337
351.100 1.851180
351.200 1.845278
351.300 1.832209
351.400 1.830944
351.500 1.841484
351.600 1.852445
351.700 1.851602
351.800 1.852024
351.900 1.854132
352.000 1.855396
352.100 1.847808
352.200 1.839376
352.300 1.841906
352.400 1.853710
352.500 1.852024
352.600 1.849494
352.700 1.843592
352.800 1.845278
352.900 1.854975
353.000 1.865936
353.100 1.875632
353.200 1.887015
353.300 1.879005
353.400 1.858769
353.500 1.851602
353.600 1.852024
353.700 1.841484
353.800 1.841484
353.900 1.842327
354.000 1.852024
354.100 1.857083
354.200 1.858769
354.300 1.857504
354.400 1.861720
354.500 1.865514
354.600 1.867622
354.700 1.876476
354.800 1.881956
354.900 1.875211
355.000 1.868044
355.100 1.868465
355.200 1.876897
355.300 1.881535
355.400 1.871417
355.500 1.862142
355.600 1.856239
355.700 1.858769
355.800 1.860455
355.900 1.854132
356.000 1.846965
356.100 1.852867
356.200 1.859191
356.300 1.854975
356.400 1.842749
356.500 1.837690
356.600 1.838954
356.700 1.832209
356.800 1.839376
356.900 1.833052
357.000 1.810708
357.100 1.764755
357.200 1.747049
357.300 1.747049
357.400 1.747892
357.500 1.752108
357.600 1.764755
357.700 1.763069
357.800 1.756745
357.900 1.752951
358.000 1.756324
358.100 1.761804
358.200 1.755902
358.300 1.750843
358.400 1.752530
358.500 1.746627
358.600 1.739039
358.700 1.734823
358.800 1.725970
358.900 1.728921
359.000 1.740725
359.100 1.741568
359.200 1.736931
359.300 1.739460
359.400 1.743255
359.500 1.746206
359.600 1.745363
359.700 1.750422
359.800 1.759696
359.900 1.765599
360.000 1.773187
360.100 1.770658
360.200 1.772344
360.300 1.763491
360.400 1.754637
360.500 1.751265
360.600 1.752951
360.700 1.755902
360.800 1.764334
360.900 1.772344
361.000 1.775717
361.100 1.764334
361.200 1.759696
361.300 1.754216
361.400 1.747049
361.500 1.742833
361.600 1.751265
361.700 1.759696
361.800 1.770658
361.900 1.779511
362.000 1.768128
362.100 1.766863
362.200 1.785413
362.300 1.790472
362.400 1.782884
362.500 1.782884
362.600 1.791737
362.700 1.802277
362.800 1.800590
362.900 1.787521
363.000 1.782040
363.100 1.778246
363.200 1.776138
363.300 1.781619
363.400 1.801855
363.500 1.798482
363.600 1.759275
363.700 1.742411
363.800 1.744941
363.900 1.748735
364.000 1.750422
364.100 1.753794
364.200 1.757589
364.300 1.751265
364.400 1.738196
364.500 1.735666
364.600 1.728499
364.700 1.731450
364.800 1.735245
364.900 1.733558
365.000 1.733137
365.100 1.730607
365.200 1.729342
365.300 1.727656
365.400 1.727234
365.500 1.730185
365.600 1.738196
365.700 1.735666
365.800 1.730185
365.900 1.724705
366.000 1.713322
366.100 1.715008
366.200 1.713322
366.300 1.720489
366.400 1.723019
366.500 1.717116
366.600 1.715430
366.700 1.710371
366.800 1.708685
366.900 1.715430
367.000 1.720911
367.100 1.718381
367.200 1.716273
367.300 1.706998
367.400 1.701096
367.500 1.690135
367.600 1.690135
367.700 1.688027
367.800 1.683811
367.900 1.685497
368.000 1.689292
368.100 1.699831
368.200 1.696880
368.300 1.693086
368.400 1.693508
368.500 1.686341
368.600 1.671585
368.700 1.669899
368.800 1.695194
368.900 1.728499
369.000 1.724283
369.100 1.688449
369.200 1.692664
369.300 1.723019
369.400 1.752530
369.500 1.746627
369.600 1.698567
369.700 1.675379
369.800 1.678331
369.900 1.732715
370.000 1.793845
370.100 1.801012
370.200 1.749578
370.300 1.650506
370.400 1.602867
370.500 1.600759
370.600 1.668212
370.700 1.735245
370.800 1.793002
370.900 1.768128
371.000 1.695194
371.100 1.616358
371.200 1.571669
371.300 1.596965
371.400 1.673272
371.500 1.796796
371.600 1.864671
371.700 1.901349
371.800 1.891231
371.900 1.814081
372.000 1.670742
372.100 1.586847
372.200 1.532884
372.300 1.574621
372.400 1.669899
372.500 1.796796
372.600 1.850759
372.700 1.915261
372.800 1.942243
372.900 1.951939
373.000 1.931282
373.100 1.856239
373.200 1.720489
373.300 1.602867
373.400 1.499578
373.500 1.482715
373.600 1.547218
373.700 1.685919
373.800 1.794688
373.900 1.926223
374.000 1.991568
374.100 2.034570
374.200 2.040894
374.300 2.024452
374.400 1.998314
374.500 1.953626
374.600 1.875211
374.700 1.765599
374.800 1.645025
374.900 1.494098
375.000 1.447723
375.100 1.476813
375.200 1.586847
375.300 1.702361
375.400 1.834317
375.500 1.904300
375.600 1.971754
375.700 1.981872
375.800 1.971332
375.900 1.951096
376.000 1.938449
376.100 1.937184
376.200 1.975970
376.300 1.987352
376.400 1.970489
376.500 1.925379
376.600 1.859612
376.700 1.785835
376.800 1.663153
376.900 1.526560
377.000 1.423272
377.100 1.384064
377.200 1.468803
377.300 1.610877
377.400 1.729342
377.500 1.833474
377.600 1.911046
377.700 1.966695
377.800 2.021501
377.900 2.050590
378.000 2.080523
378.100 2.096121
378.200 2.108347
378.300 2.100759
378.400 2.095700
378.500 2.100337
378.600 2.094013
378.700 2.081788
378.800 2.067875
378.900 2.048904
379.000 2.022344
379.100 1.988196
379.200 1.938870
379.300 1.879427
379.400 1.801855
379.500 1.667791
379.600 1.534570
379.700 1.396290
379.800 1.331788
379.900 1.381113
380.000 1.529089
380.100 1.666526
380.200 1.801433
380.300 1.879427
380.400 1.943508
380.500 1.995363
380.600 2.016863
380.700 2.040894
380.800 2.062395
380.900 2.088533
381.000 2.112142
381.100 2.123946
381.200 2.108769
381.300 2.082631
381.400 2.061130
381.500 2.056914
381.600 2.058179
381.700 2.059865
381.800 2.045531
381.900 2.018550
382.000 1.994941
382.100 1.991990
382.200 2.022766
382.300 2.033305
382.400 2.021079
382.500 1.996627
382.600 1.964165
382.700 1.949410
382.800 1.922007
382.900 1.877740
383.000 1.827150
383.100 1.749157
383.200 1.655565
383.300 1.522344
383.400 1.356239
383.500 1.282884
383.600 1.277403
383.700 1.372260
383.800 1.504637
383.900 1.645447
384.000 1.742833
384.100 1.838533
384.200 1.894182
384.300 1.953626
384.400 1.989039
384.500 2.020236
384.600 2.037099
384.700 2.046796
384.800 2.049747
384.900 2.049747
385.000 2.053120
385.100 2.070826
385.200 2.082631
385.300 2.078836
385.400 2.064081
385.500 2.048904
385.600 2.037099
385.700 2.040472
385.800 2.059444
385.900 2.075464
386.000 2.083895
386.100 2.080101
386.200 2.056492
386.300 2.016020
386.400 2.012648
386.500 2.019393
386.600 2.025295
386.700 2.039629
386.800 2.051433
386.900 2.053541
387.000 2.047639
387.100 2.031619
387.200 2.008853
387.300 1.999578
387.400 2.007167
387.500 2.019815
387.600 2.015599
387.700 1.997470
387.800 1.980607
387.900 1.965430
388.000 1.956577
388.100 1.929595
388.200 1.884907
388.300 1.841906
388.400 1.785413
388.500 1.698145
388.600 1.581366
388.700 1.415261
388.800 1.281619
388.900 1.219224
389.000 1.270658
389.100 1.409359
389.200 1.579258
389.300 1.693929
389.400 1.785835
389.500 1.839376
389.600 1.886594
389.700 1.930017
389.800 1.950253
389.900 1.959106
390.000 1.964165
390.100 1.986931
390.200 2.015177
390.300 2.031197
390.400 2.032462
390.500 2.022766
390.600 2.014334
390.700 2.024030
390.800 2.051012
390.900 2.076307
391.000 2.080523
391.100 2.083474
391.200 2.074199
391.300 2.055228
391.400 2.039207
391.500 2.041737
391.600 2.054806
391.700 2.060708
391.800 2.056492
391.900 2.042580
392.000 2.039207
392.100 2.039207
392.200 2.032040
392.300 2.014755
392.400 2.008853
392.500 2.019393
392.600 2.017285
392.700 2.017707
392.800 2.003373
392.900 1.984823
393.000 1.964587
393.100 1.916948
393.200 1.798482
393.300 1.646712
393.400 1.640809
393.500 1.747470
393.600 1.863406
393.700 1.928331
393.800 1.967960
393.900 1.993676
394.000 2.019393
394.100 2.037943
394.200 2.040472
394.300 2.024030
394.400 2.006324
394.500 1.989460
394.600 1.984401
394.700 1.992411
394.800 1.997892
394.900 1.994098
395.000 1.985666
395.100 1.973862
395.200 1.965852
395.300 1.967116
395.400 1.970911
395.500 1.962479
395.600 1.944351
395.700 1.927909
395.800 1.922428
395.900 1.916526
396.000 1.896290
396.100 1.869309
396.200 1.827993
396.300 1.788786
396.400 1.731872
396.500 1.658094
396.600 1.548482
396.700 1.352867
396.800 1.156408
396.900 1.036256
397.000 1.023187
397.100 1.119730
397.200 1.282462
397.300 1.431282
397.400 1.567454
397.500 1.662310
397.600 1.733558
397.700 1.787521
397.800 1.809444
397.900 1.846543
398.000 1.867622
398.100 1.887858
398.200 1.897976
398.300 1.903035
398.400 1.918212
398.500 1.930860
398.600 1.930438
398.700 1.914840
398.800 1.944772
398.900 1.954047
399.000 1.959949
399.100 1.964165
399.200 1.965008
399.300 1.969646
399.400 1.970067
399.500 1.972597
399.600 1.961636
399.700 1.954047
399.800 1.952782
399.900 1.956155
400.000 1.944351
400.100 1.932968
400.200 1.929595
400.300 1.926223
400.400 1.929174
400.500 1.932546
400.600 1.936762
400.700 1.938870
400.800 1.940978
400.900 1.936341
401.000 1.932125
401.100 1.935919
401.200 1.943086
401.300 1.946459
401.400 1.948567
401.500 1.951096
401.600 1.959106
401.700 1.971754
401.800 1.981450
401.900 1.986509
402.000 1.983137
402.100 1.973440
402.200 1.959949
402.300 1.928331
402.400 1.885329
402.500 1.849916
402.600 1.844857
402.700 1.871417
402.800 1.906830
402.900 1.931703
403.000 1.948988
403.100 1.951939
403.200 1.953626
403.300 1.952361
403.400 1.954469
403.500 1.962901
403.600 1.970067
403.700 1.973019
403.800 1.975126
403.900 1.973440
404.000 1.978499
404.100 1.983137
404.200 1.975126
404.300 1.965852
404.400 1.953626
404.500 1.938449
404.600 1.930860
404.700 1.938870
404.800 1.950253
404.900 1.959949
405.000 1.961214
405.100 1.959106
405.200 1.957420
405.300 1.948145
405.400 1.946459
405.500 1.954469
405.600 1.956577
405.700 1.959528
405.800 1.961636
405.900 1.964587
406.000 1.963744
406.100 1.949410
406.200 1.936762
406.300 1.925801
406.400 1.898398
406.500 1.844435
406.600 1.850759
406.700 1.866779
406.800 1.868887
406.900 1.866779
407.000 1.857926
407.100 1.847808
407.200 1.843592
407.300 1.840641
407.400 1.846965
407.500 1.845700
407.600 1.831366
407.700 1.819983
407.800 1.817032
407.900 1.831788
408.000 1.847808
408.100 1.855396
408.200 1.853288
408.300 1.846121
408.400 1.833052
408.500 1.824621
408.600 1.817454
408.700 1.822513
408.800 1.822934
408.900 1.820405
409.000 1.805649
409.100 1.791315
409.200 1.775295
409.300 1.746627
409.400 1.715852
409.500 1.667369
409.600 1.616779
409.700 1.558600
409.800 1.465430
409.900 1.356239
410.000 1.218803
410.100 1.099073
410.200 1.068718
410.300 1.142917
410.400 1.286678
410.500 1.435497
410.600 1.529933
410.700 1.594013
410.800 1.641653
410.900 1.668212
411.000 1.694772
411.100 1.715430
411.200 1.739882
411.300 1.759275
411.400 1.780776
411.500 1.798904
411.600 1.810708
411.700 1.807757
411.800 1.795110
411.900 1.787943
412.000 1.784148
412.100 1.783727
412.200 1.784148
412.300 1.790051
412.400 1.801012
412.500 1.814081
412.600 1.804806
412.700 1.783305
412.800 1.763912
412.900 1.753794
413.000 1.755059
413.100 1.765599
413.200 1.776138
413.300 1.788786
413.400 1.806914
413.500 1.815346
413.600 1.819983
413.700 1.822091
413.800 1.830101
413.900 1.835582
414.000 1.836425
414.100 1.830523
414.200 1.814924
414.300 1.797218
414.400 1.785835
