# Wavelength (nm)   F_lamA (normalized erg/cm2/s/A)9.100 0.001220
9.400 0.001357
9.600 0.001450
9.800 0.001543
10.000 0.001638
10.200 0.001734
10.400 0.001832
10.600 0.001932
10.800 0.002035
11.000 0.002142
11.400 0.002370
11.800 0.002627
12.100 0.002846
12.500 0.003187
12.700 0.003383
12.800 0.003489
13.100 0.003842
13.200 0.003972
13.400 0.004254
13.700 0.004738
14.000 0.005307
14.300 0.005972
14.700 0.007044
15.100 0.008349
15.500 0.009933
15.900 0.011841
16.200 0.013511
16.600 0.016091
17.000 0.019119
17.300 0.021711
17.700 0.025634
18.000 0.028951
18.200 0.031354
18.600 0.036638
19.100 0.044180
19.400 0.049275
19.800 0.056713
20.200 0.064931
20.500 0.071625
21.000 0.083823
21.600 0.100260
22.000 0.112347
22.300 0.121978
22.700 0.135627
23.000 3.283005
23.400 3.677575
24.000 4.730383
24.600 6.396430
25.200 8.051320
25.700 6.400149
26.000 8.940126
26.400 11.283005
26.900 11.636296
27.400 11.874303
27.900 11.126813
28.400 12.231313
29.000 12.223875
29.600 11.052436
30.100 7.218297
30.800 8.917813
31.800 11.461510
32.800 11.498698
33.800 11.182596
34.800 10.899963
35.700 11.245816
36.600 11.729267
37.500 11.506136
38.500 10.658237
39.500 11.208628
40.500 11.387133
41.400 11.253254
42.200 10.911119
43.000 10.658237
44.100 10.840461
45.100 10.702864
46.000 10.334697
47.000 10.159911
48.000 10.148754
49.000 9.743399
50.000 9.847527
50.600 10.699145
51.200 13.451097
52.000 13.094087
53.000 12.744515
54.000 11.878022
55.000 11.710673
56.000 12.413537
57.000 12.309409
58.000 11.874303
59.000 11.870584
60.000 11.420602
61.000 11.100781
62.000 11.450353
63.000 11.171439
64.000 11.123094
65.000 10.855337
65.800 10.542953
66.500 10.643362
67.500 10.587579
68.500 10.111566
69.500 10.241726
70.500 9.735961
71.600 9.970249
72.600 9.843808
73.500 9.739680
74.500 9.516549
75.500 9.345482
76.500 9.074005
77.500 9.051692
78.500 8.902938
79.500 8.795091
80.500 8.698401
81.500 8.601711
82.500 8.508739
83.500 8.043882
84.500 8.240982
85.500 8.099665
86.500 8.047601
87.500 7.943473
88.500 7.828189
89.500 7.716623
90.500 7.549275
91.500 7.791000
92.500 14.834511
93.500 21.059874
94.500 30.416512
95.500 34.782447
96.500 40.312384
97.500 23.655634
98.500 41.725549
99.500 40.200818
100.500 41.985868
101.500 38.341391
102.500 22.714764
103.500 34.912607
104.500 41.018966
105.500 40.572704
106.500 37.969505
107.500 38.713276
108.500 35.831164
109.500 37.746374
110.500 36.247676
111.500 35.648940
112.500 33.737449
113.500 34.447750
114.500 33.027148
115.500 32.792860
116.500 32.331722
117.500 28.445519
118.500 30.416512
119.500 28.244701
120.500 25.042767
121.500 15.511343
122.500 24.157679
123.500 26.883600
124.500 27.062105
125.500 26.835255
126.500 26.128672
127.500 26.303459
128.500 25.957605
129.500 24.689476
130.500 24.284120
131.500 24.585348
132.500 23.871328
133.500 23.108962
134.500 23.198215
135.500 22.800298
136.500 22.156936
137.500 21.773894
138.500 21.509855
139.500 20.111566
140.500 19.683897
141.500 20.330978
142.500 19.854965
143.500 19.642990
144.200 19.486798
144.700 19.304574
145.500 18.973596
146.500 18.579398
147.500 18.270733
148.500 17.980662
149.500 17.642246
150.500 17.259204
151.200 16.917070
151.700 16.868724
152.500 16.586091
153.500 15.894385
154.500 15.492748
155.500 15.146895
156.500 15.195240
157.500 15.161770
158.500 15.005578
159.500 14.841949
160.500 14.328747
161.500 14.090740
162.500 13.863890
163.500 13.689104
164.500 13.268873
165.500 13.291186
166.500 13.257717
167.200 12.863518
167.700 13.060617
168.500 12.915582
169.500 12.647824
170.500 12.372629
171.500 12.075121
172.500 11.900335
173.500 11.892897
174.500 11.647453
175.500 11.550762
176.500 11.190033
177.500 11.164001
178.500 11.022685
179.500 10.914838
180.500 10.777241
181.500 10.542953
182.500 10.416512
183.500 10.256601
184.500 9.940498
185.500 9.743399
186.500 9.669022
187.500 9.650428
188.500 9.334325
189.500 9.107475
190.500 9.170695
191.500 8.928970
192.500 8.757903
193.500 8.750465
194.500 8.728152
195.500 8.434362
196.700 8.456675
197.600 8.423206
198.400 8.237263
199.500 8.032726
200.500 8.021569
201.500 7.936036
202.500 7.883972
203.500 7.716623
204.500 7.619933
205.500 6.943102
206.500 7.088137
207.400 7.407958
207.800 7.296393
208.500 7.274080
209.500 7.125325
210.500 7.095575
211.500 7.036073
212.500 6.976571
213.500 6.853849
214.500 6.757159
215.500 6.716251
216.500 6.578654
217.500 6.519152
218.500 6.422462
219.500 6.400149
220.500 6.292302
221.500 6.169580
222.500 6.098922
223.500 6.069171
224.500 5.979918
225.500 5.857196
226.500 5.823726
227.500 5.767943
228.500 5.712161
229.500 5.578282
230.500 5.526218
231.500 5.477873
232.500 5.143176
233.500 5.329119
234.500 5.221272
235.500 5.213834
236.500 5.109706
237.500 5.076237
238.500 4.938639
239.500 4.953514
240.500 4.882856
241.500 4.830792
242.500 4.808479
243.500 4.726664
244.500 4.693194
245.500 4.641131
246.500 4.574191
247.500 4.522127
248.500 4.488657
249.500 4.339903
250.500 4.399405
251.300 4.258089
251.800 4.317590
252.500 4.265526
253.500 4.206025
254.500 4.161398
255.500 4.153961
256.500 4.101897
257.500 4.079583
258.500 4.038676
259.500 3.990331
260.500 3.934548
261.500 3.889922
262.500 3.856452
263.500 3.822983
264.500 3.830420
265.500 3.789513
266.500 3.730011
267.500 3.702120
268.500 3.677203
269.500 3.614355
270.500 3.593157
271.500 3.544068
272.500 3.492376
273.500 3.461882
274.500 3.402752
275.500 3.375604
276.500 3.350316
277.500 3.349572
278.500 3.309409
279.500 3.202306
280.500 3.208628
281.500 3.226106
282.500 3.179993
283.500 3.142804
284.500 3.118631
285.500 3.085162
286.500 3.069914
287.500 3.037189
288.500 3.012644
289.500 2.984753
291.000 2.953142
293.000 2.889550
295.000 2.824842
297.000 2.786910
299.000 2.735961
301.000 2.684641
303.000 2.631462
305.000 2.579026
307.000 2.526590
309.000 2.477501
311.000 2.428784
313.000 2.379695
315.000 2.335441
317.000 2.292674
319.000 2.233172
321.000 2.201190
323.000 2.163258
325.000 2.128672
327.000 2.094831
329.000 2.056527
331.000 2.022313
332.200 2.010785
332.300 2.023801
332.400 2.012644
332.500 2.004091
332.600 1.990331
332.700 1.978059
332.800 1.976943
332.900 1.980290
333.000 1.983637
333.100 1.984381
333.200 1.977315
333.300 1.962440
333.400 1.949424
333.500 1.940498
333.600 1.931201
333.700 1.918929
333.800 1.905169
333.900 1.900335
334.000 1.891409
334.100 1.904425
334.200 1.914838
334.300 1.946077
334.400 1.970249
334.500 1.984381
334.600 2.000000
334.700 2.004091
334.800 1.978059
334.900 1.931201
335.000 1.862774
335.100 1.858312
335.200 1.883972
335.300 1.898475
335.400 1.894385
335.500 1.875790
335.600 1.873931
335.700 1.882484
335.800 1.888062
335.900 1.886947
336.000 1.889178
336.100 1.880625
336.200 1.889178
336.300 1.886575
336.400 1.884716
336.500 1.867609
336.600 1.848271
336.700 1.832280
336.800 1.824098
336.900 1.832652
337.000 1.858312
337.100 1.861659
337.200 1.838230
337.300 1.829305
337.400 1.836370
337.500 1.867609
337.600 1.882484
337.700 1.856080
337.800 1.841577
337.900 1.834883
338.000 1.851990
338.100 1.873187
338.200 1.890294
338.300 1.898103
338.400 1.893641
338.500 1.896244
338.600 1.897731
338.700 1.892897
338.800 1.888806
338.900 1.885087
339.000 1.890294
339.100 1.897731
339.200 1.902566
339.300 1.901822
339.400 1.914094
339.500 1.917813
339.600 1.917441
339.700 1.900707
339.800 1.883228
339.900 1.844552
340.000 1.816289
340.100 1.825958
340.200 1.812570
340.300 1.806991
340.400 1.807363
340.500 1.812570
340.600 1.804388
340.700 1.809223
340.800 1.821495
340.900 1.829305
341.000 1.831536
341.100 1.808851
341.200 1.814057
341.300 1.833767
341.400 1.853849
341.500 1.858312
341.600 1.856452
341.700 1.855708
341.800 1.862774
341.900 1.870212
342.000 1.868353
342.100 1.863890
342.200 1.854593
342.300 1.852733
342.400 1.853105
342.500 1.849015
342.600 1.855337
342.700 1.859799
342.800 1.867237
342.900 1.870584
343.000 1.853849
343.100 1.851990
343.200 1.848643
343.300 1.853477
343.400 1.857940
343.500 1.860171
343.600 1.863890
343.700 1.860543
343.800 1.859427
343.900 1.848643
344.000 1.823354
344.100 1.806248
344.200 1.801413
344.300 1.811454
344.400 1.817776
344.500 1.812570
344.600 1.816289
344.700 1.822239
344.800 1.841577
344.900 1.854593
345.000 1.815173
345.100 1.774637
345.200 1.755671
345.300 1.749349
345.400 1.756787
345.500 1.757531
345.600 1.759762
345.700 1.761993
345.800 1.755671
345.900 1.752324
346.000 1.746746
346.100 1.743771
346.200 1.750465
346.300 1.781331
346.400 1.767943
346.500 1.768687
346.600 1.772778
346.700 1.771290
346.800 1.766456
346.900 1.764225
347.000 1.773894
347.100 1.768315
347.200 1.762737
347.300 1.760134
347.400 1.760878
347.500 1.756043
347.600 1.751952
347.700 1.733358
347.800 1.712533
347.900 1.700260
348.000 1.709186
348.100 1.724805
348.200 1.714764
348.300 1.699145
348.400 1.701004
348.500 1.730011
348.600 1.752324
348.700 1.764968
348.800 1.779100
348.900 1.776125
349.000 1.764597
349.100 1.761250
349.200 1.775009
349.300 1.778356
349.400 1.767943
349.500 1.752696
349.600 1.744143
349.700 1.750837
349.800 1.760878
349.900 1.755299
350.000 1.724433
350.100 1.708442
350.200 1.717367
350.300 1.722945
350.400 1.710301
350.500 1.692079
350.600 1.683897
350.700 1.687244
350.800 1.699888
350.900 1.705839
351.000 1.710673
351.100 1.711045
351.200 1.704723
351.300 1.691707
351.400 1.688732
351.500 1.699145
351.600 1.708814
351.700 1.709186
351.800 1.712533
351.900 1.715880
352.000 1.717367
352.100 1.711789
352.200 1.704723
352.300 1.706582
352.400 1.715136
352.500 1.713276
352.600 1.711045
352.700 1.707326
352.800 1.708070
352.900 1.715880
353.000 1.724805
353.100 1.731871
353.200 1.740796
353.300 1.734474
353.400 1.718111
353.500 1.712533
353.600 1.712161
353.700 1.704723
353.800 1.705839
353.900 1.707326
354.000 1.714392
354.100 1.717367
354.200 1.717739
354.300 1.719226
354.400 1.724061
354.500 1.725920
354.600 1.725177
354.700 1.730011
354.800 1.733730
354.900 1.729639
355.000 1.723689
355.100 1.722945
355.200 1.727780
355.300 1.728896
355.400 1.719598
355.500 1.712904
355.600 1.711789
355.700 1.717739
355.800 1.719970
355.900 1.714392
356.000 1.705467
356.100 1.710673
356.200 1.717739
356.300 1.715136
356.400 1.703235
356.500 1.693566
356.600 1.693566
356.700 1.690591
356.800 1.698029
356.900 1.693194
357.000 1.675344
357.100 1.637784
357.200 1.617330
357.300 1.615842
357.400 1.615470
357.500 1.617702
357.600 1.626627
357.700 1.625139
357.800 1.619561
357.900 1.615099
358.000 1.617330
358.100 1.622164
358.200 1.619933
358.300 1.614727
358.400 1.612123
358.500 1.606173
358.600 1.599479
358.700 1.594645
358.800 1.589067
358.900 1.595389
359.000 1.607289
359.100 1.608776
359.200 1.603570
359.300 1.603198
359.400 1.605801
359.500 1.608776
359.600 1.609148
359.700 1.613239
359.800 1.618817
359.900 1.621792
360.000 1.626255
360.100 1.622908
360.200 1.626255
360.300 1.621792
360.400 1.615842
360.500 1.613983
360.600 1.616214
360.700 1.618817
360.800 1.623652
360.900 1.629602
361.000 1.632949
361.100 1.626255
361.200 1.622536
361.300 1.616586
361.400 1.612123
361.500 1.611008
361.600 1.618074
361.700 1.625139
361.800 1.634065
361.900 1.641874
362.000 1.635552
362.100 1.634437
362.200 1.648196
362.300 1.652659
362.400 1.647081
362.500 1.647824
362.600 1.655634
362.700 1.663816
362.800 1.663072
362.900 1.652659
363.000 1.646709
363.100 1.642990
363.200 1.641131
363.300 1.644478
363.400 1.658609
363.500 1.655262
363.600 1.623280
363.700 1.608776
363.800 1.611380
363.900 1.615470
364.000 1.617702
364.100 1.619189
364.200 1.621049
364.300 1.615099
364.400 1.606545
364.500 1.606545
364.600 1.600223
364.700 1.600223
364.800 1.602826
364.900 1.603570
365.000 1.605430
365.100 1.603570
365.200 1.602826
365.300 1.603198
365.400 1.602826
365.500 1.601711
365.600 1.605058
365.700 1.603198
365.800 1.599851
365.900 1.595389
366.000 1.586091
366.100 1.584232
366.200 1.580885
366.300 1.586463
366.400 1.589438
366.500 1.584976
366.600 1.583116
366.700 1.576422
366.800 1.573819
366.900 1.578654
367.000 1.584232
367.100 1.584232
367.200 1.582745
367.300 1.575307
367.400 1.570100
367.500 1.559688
367.600 1.557084
367.700 1.552994
367.800 1.550019
367.900 1.552250
368.000 1.556341
368.100 1.566382
368.200 1.562291
368.300 1.558572
368.400 1.559688
368.500 1.552250
368.600 1.537746
368.700 1.538118
368.800 1.560803
368.900 1.590182
369.000 1.586463
369.100 1.552994
369.200 1.555225
369.300 1.579769
369.400 1.606917
369.500 1.602454
369.600 1.558572
369.700 1.537374
369.800 1.542581
369.900 1.595389
370.000 1.651171
370.100 1.657122
370.200 1.606917
370.300 1.508739
370.400 1.463369
370.500 1.462254
370.600 1.532168
370.700 1.602454
370.800 1.661212
370.900 1.635180
371.000 1.559316
371.100 1.479360
371.200 1.435478
371.300 1.462626
371.400 1.538118
371.500 1.660840
371.600 1.730755
371.700 1.770175
371.800 1.758646
371.900 1.681666
372.000 1.537374
372.100 1.453700
372.200 1.401264
372.300 1.444775
372.400 1.540721
372.500 1.667906
372.600 1.730011
372.700 1.800669
372.800 1.828933
372.900 1.835627
373.000 1.809595
373.100 1.731499
373.200 1.591670
373.300 1.473782
373.400 1.370770
373.500 1.357382
373.600 1.423949
373.700 1.565638
373.800 1.677575
373.900 1.812942
374.000 1.880625
374.100 1.926367
374.200 1.938267
374.300 1.925251
374.400 1.897731
374.500 1.851618
374.600 1.768315
374.700 1.653403
374.800 1.528077
374.900 1.373001
375.000 1.326144
375.100 1.353291
375.200 1.460394
375.300 1.579398
375.400 1.717367
375.500 1.792116
375.600 1.867237
375.700 1.887319
375.800 1.891409
375.900 1.880997
376.000 1.869468
376.100 1.866865
376.200 1.896244
376.300 1.900707
376.400 1.880997
376.500 1.831536
376.600 1.755671
376.700 1.675716
376.800 1.547415
376.900 1.406471
377.000 1.301227
377.100 1.261435
377.200 1.343250
377.300 1.486426
377.400 1.608033
377.500 1.721086
377.600 1.807735
377.700 1.870212
377.800 1.931945
377.900 1.966158
378.000 2.002231
378.100 2.019710
378.200 2.031982
378.300 2.029379
378.400 2.027891
378.500 2.031610
378.600 2.024544
378.700 2.011900
378.800 1.998884
378.900 1.976943
379.000 1.943473
379.100 1.904797
379.200 1.847155
379.300 1.779472
379.400 1.695054
379.500 1.555597
379.600 1.420974
379.700 1.281517
379.800 1.217181
379.900 1.264782
380.000 1.411677
380.100 1.544812
380.200 1.684641
380.300 1.769059
380.400 1.841577
380.500 1.897360
380.600 1.925623
380.700 1.958349
380.800 1.986240
380.900 2.017851
381.000 2.043511
381.100 2.057642
381.200 2.049461
381.300 2.031238
381.400 2.015619
381.500 2.014875
381.600 2.013016
381.700 2.005206
381.800 1.982521
381.900 1.947192
382.000 1.925623
382.100 1.928970
382.200 1.963555
382.300 1.972109
382.400 1.958721
382.500 1.934176
382.600 1.899963
382.700 1.878765
382.800 1.844552
382.900 1.792860
383.000 1.736333
383.100 1.650428
383.200 1.553366
383.300 1.419859
383.400 1.250651
383.500 1.178133
383.600 1.172927
383.700 1.265154
383.800 1.396430
383.900 1.538118
384.000 1.637040
384.100 1.740796
384.200 1.803644
384.300 1.870584
384.400 1.911119
384.500 1.946077
384.600 1.970249
384.700 1.984753
384.800 1.994422
384.900 1.998512
385.000 2.005578
385.100 2.024544
385.200 2.034957
385.300 2.031982
385.400 2.018222
385.500 2.004463
385.600 1.995537
385.700 2.002231
385.800 2.022685
385.900 2.040536
386.000 2.049833
386.100 2.044998
386.200 2.020826
386.300 1.978059
386.400 1.975456
386.500 1.982149
386.600 1.986984
386.700 1.997025
386.800 2.004463
386.900 2.005206
387.000 1.997397
387.100 1.979918
387.200 1.959093
387.300 1.953886
387.400 1.961324
387.500 1.970249
387.600 1.959836
387.700 1.937151
387.800 1.919673
387.900 1.902566
388.000 1.887691
388.100 1.855337
388.200 1.803273
388.300 1.754927
388.400 1.690219
388.500 1.597992
388.600 1.481964
388.700 1.316846
388.800 1.187058
388.900 1.123838
389.000 1.172555
389.100 1.300483
389.200 1.467832
389.300 1.581629
389.400 1.681666
389.500 1.744515
389.600 1.801041
389.700 1.849758
389.800 1.874675
389.900 1.893641
390.000 1.906657
390.100 1.931201
390.200 1.959836
390.300 1.977687
390.400 1.984009
390.500 1.979918
390.600 1.976199
390.700 1.989215
390.800 2.015619
390.900 2.038304
391.000 2.043511
391.100 2.046486
391.200 2.038676
391.300 2.022685
391.400 2.010041
391.500 2.013016
391.600 2.024916
391.700 2.030866
391.800 2.027891
391.900 2.014875
392.000 2.013016
392.100 2.014132
392.200 2.008553
392.300 1.995165
392.400 1.989215
392.500 1.994422
392.600 1.989587
392.700 1.991075
392.800 1.983637
392.900 1.973596
393.000 1.960580
393.100 1.915954
393.200 1.810710
393.300 1.675344
393.400 1.664559
393.500 1.756043
393.600 1.869840
393.700 1.933433
393.800 1.969134
393.900 1.988472
394.000 2.007066
394.100 2.019338
394.200 2.019710
394.300 2.004091
394.400 1.988472
394.500 1.970993
394.600 1.962811
394.700 1.965415
394.800 1.968390
394.900 1.965043
395.000 1.957233
395.100 1.946448
395.200 1.936779
395.300 1.934176
395.400 1.931945
395.500 1.918929
395.600 1.901450
395.700 1.885087
395.800 1.877650
395.900 1.865006
396.000 1.837114
396.100 1.805132
396.200 1.760134
396.300 1.716995
396.400 1.654890
396.500 1.576051
396.600 1.470807
396.700 1.289327
396.800 1.113425
396.900 0.997397
397.000 0.976571
397.100 1.058386
397.200 1.207884
397.300 1.345110
397.400 1.479360
397.500 1.573819
397.600 1.648196
397.700 1.708442
397.800 1.738193
397.900 1.779472
398.000 1.804760
398.100 1.828561
398.200 1.844552
398.300 1.855708
398.400 1.873559
398.500 1.888434
398.600 1.891781
398.700 1.883600
398.800 1.908144
398.900 1.917070
399.000 1.926367
399.100 1.932317
399.200 1.933061
399.300 1.935664
399.400 1.933804
399.500 1.937523
399.600 1.933433
399.700 1.931573
399.800 1.933061
399.900 1.937151
400.000 1.925623
400.100 1.911863
400.200 1.908144
400.300 1.903682
400.400 1.905169
400.500 1.907772
400.600 1.911491
400.700 1.911491
400.800 1.909632
400.900 1.902938
401.000 1.900707
401.100 1.908516
401.200 1.917070
401.300 1.922648
401.400 1.924507
401.500 1.927482
401.600 1.936036
401.700 1.946448
401.800 1.954258
401.900 1.957605
402.000 1.955374
402.100 1.947564
402.200 1.935664
402.300 1.904797
402.400 1.861659
402.500 1.822239
402.600 1.812570
402.700 1.835627
402.800 1.874303
402.900 1.903310
403.000 1.926367
403.100 1.933433
403.200 1.937151
403.300 1.936036
403.400 1.937151
403.500 1.944217
403.600 1.948680
403.700 1.949795
403.800 1.951283
403.900 1.949052
404.000 1.950911
404.100 1.952771
404.200 1.946820
404.300 1.939011
404.400 1.927110
404.500 1.914838
404.600 1.909632
404.700 1.918185
404.800 1.928970
404.900 1.936779
405.000 1.937895
405.100 1.935664
405.200 1.932689
405.300 1.923763
405.400 1.921160
405.500 1.928226
405.600 1.930829
405.700 1.932317
405.800 1.932317
405.900 1.933061
406.000 1.932317
406.100 1.921904
406.200 1.909632
406.300 1.900707
406.400 1.879881
406.500 1.832652
406.600 1.831164
406.700 1.840461
406.800 1.840461
406.900 1.837858
407.000 1.828933
407.100 1.817776
407.200 1.814057
407.300 1.812198
407.400 1.815917
407.500 1.813313
407.600 1.800298
407.700 1.790628
407.800 1.788025
407.900 1.799182
408.000 1.811082
408.100 1.815917
408.200 1.812942
408.300 1.804760
408.400 1.791372
408.500 1.780959
408.600 1.769431
408.700 1.767200
408.800 1.760134
408.900 1.753440
409.000 1.736705
409.100 1.722573
409.200 1.705839
409.300 1.674600
409.400 1.640759
409.500 1.587579
409.600 1.530309
409.700 1.465972
409.800 1.371142
409.900 1.263667
410.000 1.129788
410.100 1.015991
410.200 0.989215
410.300 1.061361
410.400 1.192265
410.500 1.333581
410.600 1.427668
410.700 1.499442
410.800 1.554853
410.900 1.589810
411.000 1.624768
411.100 1.651171
411.200 1.678319
411.300 1.697657
411.400 1.716623
411.500 1.733730
411.600 1.747118
411.700 1.748977
411.800 1.741540
411.900 1.737449
412.000 1.733730
412.100 1.736705
412.200 1.742655
412.300 1.753068
412.400 1.765340
412.500 1.776869
412.600 1.766828
412.700 1.746746
412.800 1.731127
412.900 1.723317
413.000 1.724061
413.100 1.733730
413.200 1.744515
413.300 1.758274
413.400 1.777612
413.500 1.786166
413.600 1.791000
413.700 1.791744
413.800 1.797322
413.900 1.800298
414.000 1.800669
414.100 1.793604
414.200 1.775381
414.300 1.758646
414.400 1.748605
414.500 1.759018
414.600 1.775009
414.700 1.786538
