# Wavelength (nm)   F_lamA (normalized erg/cm2/s/A)9.100 0.000006
9.400 0.000013
9.600 0.000021
9.800 0.000034
10.000 0.000053
10.200 0.000082
10.400 0.000125
10.600 0.000186
10.800 0.000274
11.000 0.000396
11.400 0.000793
11.800 0.001507
12.100 0.002362
12.500 0.004143
12.700 0.005405
12.800 0.006150
13.100 0.008940
13.200 0.010083
13.400 0.012749
13.700 0.017856
14.000 0.024601
14.300 0.033351
14.700 0.048953
15.100 0.070163
15.500 0.098367
15.900 0.135162
16.200 0.169453
16.600 0.225595
17.000 0.295527
17.300 0.358360
17.700 0.457579
18.000 0.545083
18.200 0.609869
18.600 0.757188
19.100 0.976571
19.400 1.128860
19.800 1.357827
20.200 1.618211
20.500 1.835286
21.000 2.241747
21.600 2.804402
22.000 3.228612
22.300 3.572950
22.700 4.066383
23.000 128.860490
23.400 140.592829
24.000 165.122471
24.600 198.615548
25.200 233.404331
25.700 217.962371
26.000 259.673411
26.400 303.336883
26.900 307.419240
27.400 312.034079
27.900 302.271920
28.400 315.761448
29.000 314.696486
29.600 300.141995
30.100 249.911253
30.800 280.972666
31.800 312.921548
32.800 313.276535
33.800 306.531771
34.800 300.496983
35.700 304.401846
36.600 309.194178
37.500 304.401846
38.500 289.847355
39.500 295.172169
40.500 295.172169
41.400 290.557330
42.200 283.457579
43.000 277.777778
44.100 276.712815
45.100 271.565495
46.000 263.400781
47.000 257.543486
48.000 253.816116
49.000 245.118921
50.000 242.811502
50.600 240.681576
51.200 254.881079
52.000 249.378772
53.000 243.343983
54.000 232.161874
55.000 225.772098
56.000 228.611999
57.000 224.352148
58.000 217.962371
59.000 214.235002
60.000 207.490238
61.000 200.390486
62.000 200.035499
63.000 194.355698
64.000 191.338303
65.000 186.013490
65.800 181.043663
66.500 180.156195
67.500 176.570820
68.500 170.092297
69.500 168.370607
70.500 161.750089
71.600 160.454384
72.600 157.117501
73.500 153.922613
74.500 149.840256
75.500 146.059638
76.500 141.498048
77.500 139.368122
78.500 135.676251
79.500 132.889599
80.500 130.333688
81.500 127.564785
82.500 124.849130
83.500 119.914803
84.500 119.204828
85.500 116.222932
86.500 114.146255
87.500 111.714590
88.500 109.158679
89.500 106.691516
90.500 103.869365
91.500 117.997870
92.500 141.622293
93.500 161.306354
94.500 185.303514
95.500 191.338303
96.500 204.295350
97.500 163.205538
98.500 196.130635
99.500 185.126021
100.500 188.320909
101.500 182.108626
102.500 147.621583
103.500 172.488463
104.500 174.742634
105.500 170.837771
106.500 164.004260
107.500 161.643592
108.500 152.413916
109.500 155.111821
110.500 150.408236
111.500 146.964856
112.500 141.586794
113.500 140.628328
114.500 136.812212
115.500 133.439830
116.500 130.262691
117.500 121.423500
118.500 123.784168
119.500 120.287540
120.500 115.725950
121.500 96.148385
122.500 110.543131
123.500 109.957401
124.500 107.774228
125.500 106.247781
126.500 103.958111
127.500 101.952432
128.500 99.840256
129.500 96.964856
130.500 94.959176
131.500 93.485978
132.500 91.143060
133.500 89.066383
134.500 87.575435
135.500 85.605254
136.500 83.475328
137.500 81.469649
138.500 80.085197
139.500 75.718850
140.500 72.736954
141.500 75.275115
142.500 73.393681
143.500 72.257721
144.200 71.050763
144.700 70.340788
145.500 69.080582
146.500 67.749379
147.500 66.453674
148.500 65.317714
149.500 63.915513
150.500 62.637558
151.200 61.750089
151.700 61.093362
152.500 60.117146
153.500 58.342208
154.500 55.928293
155.500 55.111821
156.500 55.040824
157.500 54.277600
158.500 53.336883
159.500 52.342918
160.500 50.958466
161.500 49.964501
162.500 49.041534
163.500 47.870075
164.500 46.077387
165.500 46.680866
166.500 45.899894
167.200 45.012425
167.700 45.065673
168.500 44.355698
169.500 43.539226
170.500 42.669507
171.500 41.604544
172.500 40.983316
173.500 40.521832
174.500 39.758608
175.500 39.013135
176.500 38.320909
177.500 37.699681
178.500 37.078452
179.500 36.421725
180.500 35.835996
181.500 35.179269
182.500 34.575790
183.500 34.007810
184.500 33.297835
185.500 32.694356
186.500 32.179624
187.500 31.700390
188.500 31.043663
189.500 30.493433
190.500 30.120696
191.500 29.534966
192.500 28.949237
193.500 28.611999
194.500 28.203763
195.500 27.618033
196.700 27.192048
197.600 26.854810
198.400 26.446574
199.500 25.914093
200.500 25.576855
201.500 25.204118
202.500 24.813632
203.500 24.387646
204.500 23.997160
205.500 20.979766
206.500 21.476748
207.400 22.932197
207.800 22.896699
208.500 22.683706
209.500 22.381967
210.500 22.044728
211.500 21.796237
212.500 21.458999
213.500 21.121761
214.500 20.784523
215.500 20.589279
216.500 20.127796
217.500 19.968051
218.500 19.524317
219.500 19.382322
220.500 19.098332
221.500 18.654597
222.500 18.530351
223.500 18.246361
224.500 17.980121
225.500 17.559460
226.500 17.465389
227.500 17.213348
228.500 16.957756
229.500 16.631168
230.500 16.302804
231.500 16.231807
232.500 15.867945
233.500 15.770323
234.500 15.539581
235.500 15.330138
236.500 15.106496
237.500 14.898829
238.500 14.499468
239.500 14.474618
240.500 14.277600
241.500 14.080582
242.500 13.895989
243.500 13.698971
244.500 13.514377
245.500 13.326234
246.500 13.146965
247.500 12.969471
248.500 12.795527
249.500 12.442315
250.500 12.433440
251.300 11.924033
251.800 12.209798
252.500 12.110401
253.500 11.955982
254.500 11.794462
255.500 11.647142
256.500 11.494498
257.500 11.347178
258.500 11.199858
259.500 11.047213
260.500 10.910543
261.500 10.764998
262.500 10.631878
263.500 10.493433
264.500 10.370962
265.500 10.237842
266.500 10.101171
267.500 9.971601
268.500 9.859780
269.500 9.717785
270.500 9.611289
271.500 9.487043
272.500 9.352148
273.500 9.121406
274.500 9.132055
275.500 9.020234
276.500 8.895989
277.500 8.807242
278.500 8.698971
279.500 8.569400
280.500 8.477103
281.500 8.386581
282.500 8.269436
283.500 8.173589
284.500 8.084842
285.500 7.987220
286.500 7.893149
287.500 7.799077
288.500 7.706780
289.500 7.614483
291.000 7.481363
293.000 7.307419
295.000 7.124601
297.000 6.971956
299.000 6.810437
301.000 6.636493
303.000 6.467874
305.000 6.304579
307.000 6.148385
309.000 5.995740
311.000 5.848420
313.000 5.704650
315.000 5.566205
317.000 5.433085
319.000 5.289315
321.000 5.141995
323.000 5.056798
325.000 4.937877
327.000 4.822506
329.000 4.712460
331.000 4.605964
332.200 4.392971
332.300 4.414271
332.400 4.391196
332.500 4.371672
332.600 4.341498
332.700 4.321974
332.800 4.305999
332.900 4.305999
333.000 4.307774
333.100 4.302449
333.200 4.288250
333.300 4.263401
333.400 4.247426
333.500 4.240327
333.600 4.222577
333.700 4.208378
333.800 4.197728
333.900 4.178204
334.000 4.158679
334.100 4.171104
334.200 4.185304
334.300 4.252751
334.400 4.288250
334.500 4.316649
334.600 4.341498
334.700 4.352148
334.800 4.307774
334.900 4.236777
335.000 4.100106
335.100 4.089457
335.200 4.116081
335.300 4.123181
335.400 4.116081
335.500 4.100106
335.600 4.110756
335.700 4.132055
335.800 4.148030
335.900 4.155130
336.000 4.162229
336.100 4.160454
336.200 4.156905
336.300 4.128506
336.400 4.105431
336.500 4.068158
336.600 4.048633
336.700 4.034434
336.800 4.034434
336.900 4.041534
337.000 4.071707
337.100 4.069933
337.200 4.037984
337.300 4.032659
337.400 4.039759
337.500 4.062833
337.600 4.068158
337.700 4.032659
337.800 4.023784
337.900 4.027334
338.000 4.059283
338.100 4.084132
338.200 4.091232
338.300 4.085907
338.400 4.069933
338.500 4.089457
338.600 4.114306
338.700 4.130280
338.800 4.128506
338.900 4.089457
339.000 4.073482
339.100 4.066383
339.200 4.085907
339.300 4.101881
339.400 4.144480
339.500 4.140930
339.600 4.103656
339.700 4.050408
339.800 4.009585
339.900 3.935037
340.000 3.915513
340.100 3.935037
340.200 3.926163
340.300 3.915513
340.400 3.926163
340.500 3.929712
340.600 3.917288
340.700 3.920838
340.800 3.931487
340.900 3.942137
341.000 3.943912
341.100 3.895989
341.200 3.892439
341.300 3.915513
341.400 3.945687
341.500 3.966986
341.600 3.963436
341.700 3.958111
341.800 3.951012
341.900 3.947462
342.000 3.945687
342.100 3.951012
342.200 3.954562
342.300 3.958111
342.400 3.952787
342.500 3.942137
342.600 3.942137
342.700 3.945687
342.800 3.959886
342.900 3.952787
343.000 3.922613
343.100 3.919063
343.200 3.920838
343.300 3.927938
343.400 3.931487
343.500 3.942137
343.600 3.942137
343.700 3.936812
343.800 3.917288
343.900 3.897764
344.000 3.849840
344.100 3.835641
344.200 3.837416
344.300 3.865815
344.400 3.881789
344.500 3.849840
344.600 3.835641
344.700 3.828541
344.800 3.851615
344.900 3.871140
345.000 3.798367
345.100 3.757543
345.200 3.741569
345.300 3.743344
345.400 3.753994
345.500 3.752219
345.600 3.748669
345.700 3.745119
345.800 3.739794
345.900 3.732694
346.000 3.729144
346.100 3.729144
346.200 3.746894
346.300 3.837416
346.400 3.791267
346.500 3.785942
346.600 3.798367
346.700 3.791267
346.800 3.773518
346.900 3.771743
347.000 3.778843
347.100 3.729144
347.200 3.720270
347.300 3.761093
347.400 3.761093
347.500 3.745119
347.600 3.713170
347.700 3.645722
347.800 3.585375
347.900 3.569400
348.000 3.603124
348.100 3.649272
348.200 3.629748
348.300 3.587149
348.400 3.596024
348.500 3.659922
348.600 3.682996
348.700 3.700745
348.800 3.743344
348.900 3.755769
349.000 3.729144
349.100 3.722045
349.200 3.750444
349.300 3.748669
349.400 3.743344
349.500 3.729144
349.600 3.695421
349.700 3.697196
349.800 3.711395
349.900 3.711395
350.000 3.681221
350.100 3.620873
350.200 3.620873
350.300 3.636848
350.400 3.611999
350.500 3.571175
350.600 3.558750
350.700 3.574725
350.800 3.594249
350.900 3.592474
351.000 3.588924
351.100 3.590699
351.200 3.583600
351.300 3.569400
351.400 3.581825
351.500 3.583600
351.600 3.590699
351.700 3.565850
351.800 3.556976
351.900 3.564075
352.000 3.569400
352.100 3.565850
352.200 3.555201
352.300 3.551651
352.400 3.578275
352.500 3.548101
352.600 3.542776
352.700 3.546326
352.800 3.555201
352.900 3.564075
353.000 3.572950
353.100 3.588924
353.200 3.603124
353.300 3.576500
353.400 3.535676
353.500 3.526802
353.600 3.530351
353.700 3.503727
353.800 3.496628
353.900 3.494853
354.000 3.516152
354.100 3.535676
354.200 3.532126
354.300 3.517927
354.400 3.516152
354.500 3.519702
354.600 3.507277
354.700 3.519702
354.800 3.539226
354.900 3.539226
355.000 3.516152
355.100 3.501952
355.200 3.514377
355.300 3.535676
355.400 3.533901
355.500 3.512602
355.600 3.487753
355.700 3.491303
355.800 3.501952
355.900 3.498403
356.000 3.489528
356.100 3.498403
356.200 3.510827
356.300 3.496628
356.400 3.477103
356.500 3.498403
356.600 3.519702
356.700 3.491303
356.800 3.491303
356.900 3.471778
357.000 3.430955
357.100 3.367057
357.200 3.368832
357.300 3.375932
357.400 3.363507
357.500 3.361732
357.600 3.375932
357.700 3.375932
357.800 3.365282
357.900 3.349308
358.000 3.358182
358.100 3.370607
358.200 3.367057
358.300 3.359957
358.400 3.358182
358.500 3.361732
358.600 3.367057
358.700 3.363507
358.800 3.347533
358.900 3.335108
359.000 3.351083
359.100 3.354633
359.200 3.335108
359.300 3.331558
359.400 3.335108
359.500 3.326234
359.600 3.313809
359.700 3.315584
359.800 3.320909
359.900 3.335108
360.000 3.361732
360.100 3.356408
360.200 3.358182
360.300 3.340433
360.400 3.324459
360.500 3.320909
360.600 3.319134
360.700 3.319134
360.800 3.329783
360.900 3.340433
361.000 3.335108
361.100 3.297835
361.200 3.299610
361.300 3.297835
361.400 3.280085
361.500 3.272985
361.600 3.281860
361.700 3.292510
361.800 3.306709
361.900 3.313809
362.000 3.285410
362.100 3.276535
362.200 3.303159
362.300 3.304934
362.400 3.285410
362.500 3.280085
362.600 3.294285
362.700 3.296060
362.800 3.274760
362.900 3.260561
363.000 3.276535
363.100 3.296060
363.200 3.294285
363.300 3.285410
363.400 3.303159
363.500 3.290735
363.600 3.226837
363.700 3.201988
363.800 3.201988
363.900 3.196663
364.000 3.200213
364.100 3.221512
364.200 3.233937
364.300 3.212638
364.400 3.175364
364.500 3.166489
364.600 3.173589
364.700 3.178914
364.800 3.186013
364.900 3.191338
365.000 3.186013
365.100 3.171814
365.200 3.162939
365.300 3.155840
365.400 3.146965
365.500 3.155840
365.600 3.159389
365.700 3.150515
365.800 3.145190
365.900 3.141640
366.000 3.132765
366.100 3.127441
366.200 3.123891
366.300 3.136315
366.400 3.141640
366.500 3.134540
366.600 3.127441
366.700 3.113241
366.800 3.104366
366.900 3.109691
367.000 3.120341
367.100 3.116791
367.200 3.106141
367.300 3.091942
367.400 3.086617
367.500 3.084842
367.600 3.100816
367.700 3.086617
367.800 3.079517
367.900 3.079517
368.000 3.075967
368.100 3.079517
368.200 3.081292
368.300 3.075967
368.400 3.065318
368.500 3.065318
368.600 3.067093
368.700 3.061768
368.800 3.065318
368.900 3.072417
369.000 3.063543
369.100 3.051118
369.200 3.059993
369.300 3.067093
369.400 3.044018
369.500 3.028044
369.600 3.024494
369.700 3.013845
369.800 3.008520
369.900 3.017394
370.000 3.040469
370.100 3.024494
370.200 2.987220
370.300 2.957047
370.400 2.942847
370.500 2.948172
370.600 2.960596
370.700 2.978346
370.800 2.974796
370.900 2.965921
371.000 2.946397
371.100 2.921548
371.200 2.903798
371.300 2.903798
371.400 2.930422
371.500 2.967696
371.600 2.978346
371.700 2.962371
371.800 2.962371
371.900 2.916223
372.000 2.864750
372.100 2.841676
372.200 2.847000
372.300 2.871849
372.400 2.891374
372.500 2.886049
372.600 2.889599
372.700 2.912673
372.800 2.933972
372.900 2.937522
373.000 2.933972
373.100 2.900248
373.200 2.862975
373.300 2.811502
373.400 2.770678
373.500 2.765353
373.600 2.791977
373.700 2.829251
373.800 2.878949
373.900 2.921548
374.000 2.948172
374.100 2.962371
374.200 2.951722
374.300 2.921548
374.400 2.910898
374.500 2.902023
374.600 2.873624
374.700 2.823926
374.800 2.758253
374.900 2.696131
375.000 2.680156
375.100 2.710330
375.200 2.745829
375.300 2.772453
375.400 2.795527
375.500 2.829251
375.600 2.845225
375.700 2.838126
375.800 2.829251
375.900 2.820376
376.000 2.809727
376.100 2.804402
376.200 2.857650
376.300 2.880724
376.400 2.861200
376.500 2.825701
376.600 2.786652
376.700 2.740504
376.800 2.687256
376.900 2.625133
377.000 2.563010
377.100 2.555911
377.200 2.605609
377.300 2.673056
377.400 2.728080
377.500 2.770678
377.600 2.791977
377.700 2.806177
377.800 2.809727
377.900 2.806177
378.000 2.807952
378.100 2.813277
378.200 2.827476
378.300 2.820376
378.400 2.811502
378.500 2.832801
378.600 2.843450
378.700 2.831026
378.800 2.815051
378.900 2.793752
379.000 2.768903
379.100 2.747604
379.200 2.736954
379.300 2.726305
379.400 2.685481
379.500 2.632233
379.600 2.547036
379.700 2.468939
379.800 2.445864
379.900 2.492013
380.000 2.575435
380.100 2.655307
380.200 2.689031
380.300 2.713880
380.400 2.733404
380.500 2.763578
380.600 2.752929
380.700 2.756479
380.800 2.768903
380.900 2.772453
381.000 2.777778
381.100 2.781328
381.200 2.770678
381.300 2.768903
381.400 2.772453
381.500 2.768903
381.600 2.754704
381.700 2.758253
381.800 2.749379
381.900 2.742279
382.000 2.731629
382.100 2.722755
382.200 2.731629
382.300 2.740504
382.400 2.738729
382.500 2.733404
382.600 2.713880
382.700 2.719205
382.800 2.712105
382.900 2.680156
383.000 2.637558
383.100 2.594959
383.200 2.541711
383.300 2.465389
383.400 2.380192
383.500 2.318069
383.600 2.332268
383.700 2.408591
383.800 2.490238
383.900 2.552361
384.000 2.600284
384.100 2.625133
384.200 2.648207
384.300 2.678381
384.400 2.708555
384.500 2.731629
384.600 2.713880
384.700 2.708555
384.800 2.703230
384.900 2.717430
385.000 2.715655
385.100 2.722755
385.200 2.729854
385.300 2.720980
385.400 2.708555
385.500 2.697906
385.600 2.685481
385.700 2.667732
385.800 2.664182
385.900 2.692581
386.000 2.706780
386.100 2.719205
386.200 2.699681
386.300 2.671282
386.400 2.649982
386.500 2.639333
386.600 2.644657
386.700 2.660632
386.800 2.671282
386.900 2.662407
387.000 2.646432
387.100 2.639333
387.200 2.635783
387.300 2.639333
387.400 2.642882
387.500 2.641108
387.600 2.632233
387.700 2.619808
387.800 2.625133
387.900 2.626908
388.000 2.630458
388.100 2.607384
388.200 2.582535
388.300 2.557685
388.400 2.532836
388.500 2.483138
388.600 2.397941
388.700 2.293220
388.800 2.190273
388.900 2.160099
389.000 2.227547
389.100 2.355343
389.200 2.440540
389.300 2.509762
389.400 2.541711
389.500 2.566560
389.600 2.589634
389.700 2.598509
389.800 2.607384
389.900 2.610934
390.000 2.618033
390.100 2.625133
390.200 2.626908
390.300 2.632233
390.400 2.635783
390.500 2.635783
390.600 2.626908
390.700 2.628683
390.800 2.648207
390.900 2.644657
391.000 2.623358
391.100 2.626908
391.200 2.637558
391.300 2.630458
391.400 2.630458
391.500 2.637558
391.600 2.635783
391.700 2.632233
391.800 2.619808
391.900 2.602059
392.000 2.593184
392.100 2.584310
392.200 2.566560
392.300 2.534611
392.400 2.532836
392.500 2.557685
392.600 2.570110
392.700 2.580760
392.800 2.582535
392.900 2.582535
393.000 2.578985
393.100 2.541711
393.200 2.399716
393.300 2.179624
393.400 2.208023
393.500 2.428115
393.600 2.538161
393.700 2.577210
393.800 2.580760
393.900 2.571885
394.000 2.571885
394.100 2.577210
394.200 2.577210
394.300 2.561235
394.400 2.548811
394.500 2.522187
394.600 2.509762
394.700 2.513312
394.800 2.516862
394.900 2.518637
395.000 2.516862
395.100 2.507987
395.200 2.497338
395.300 2.495563
395.400 2.490238
395.500 2.479588
395.600 2.467164
395.700 2.458289
395.800 2.452964
395.900 2.454739
396.000 2.456514
396.100 2.449414
396.200 2.436990
396.300 2.410366
396.400 2.374867
396.500 2.344693
396.600 2.268371
396.700 2.083777
396.800 1.879659
396.900 1.837061
397.000 1.911608
397.100 2.023429
397.200 2.133475
397.300 2.232872
397.400 2.287895
397.500 2.326944
397.600 2.358892
397.700 2.365992
397.800 2.367767
397.900 2.385517
398.000 2.394391
398.100 2.406816
398.200 2.412141
398.300 2.403266
398.400 2.396166
398.500 2.396166
398.600 2.357118
398.700 2.302094
398.800 2.381967
398.900 2.406816
399.000 2.415690
399.100 2.421015
399.200 2.421015
399.300 2.417465
399.400 2.410366
399.500 2.412141
399.600 2.405041
399.700 2.403266
399.800 2.405041
399.900 2.405041
400.000 2.387291
400.100 2.380192
400.200 2.383742
400.300 2.383742
400.400 2.381967
400.500 2.387291
400.600 2.387291
400.700 2.383742
400.800 2.385517
400.900 2.383742
401.000 2.376642
401.100 2.381967
401.200 2.385517
401.300 2.383742
401.400 2.383742
401.500 2.380192
401.600 2.373092
401.700 2.378417
401.800 2.387291
401.900 2.390841
402.000 2.383742
402.100 2.371317
402.200 2.369542
402.300 2.351793
402.400 2.312744
402.500 2.275470
402.600 2.263046
402.700 2.291445
402.800 2.328718
402.900 2.355343
403.000 2.371317
403.100 2.371317
403.200 2.367767
403.300 2.365992
403.400 2.365992
403.500 2.371317
403.600 2.373092
403.700 2.365992
403.800 2.358892
403.900 2.350018
404.000 2.357118
404.100 2.371317
404.200 2.369542
404.300 2.362442
404.400 2.358892
404.500 2.355343
404.600 2.351793
404.700 2.353568
404.800 2.360667
404.900 2.360667
405.000 2.351793
405.100 2.350018
405.200 2.362442
405.300 2.358892
405.400 2.358892
405.500 2.362442
405.600 2.357118
405.700 2.355343
405.800 2.357118
405.900 2.355343
406.000 2.353568
406.100 2.341143
406.200 2.332268
406.300 2.334043
406.400 2.286120
406.500 2.177849
406.600 2.215122
406.700 2.270146
406.800 2.273695
406.900 2.264821
407.000 2.257721
407.100 2.261271
407.200 2.271920
407.300 2.259496
407.400 2.257721
407.500 2.255946
407.600 2.250621
407.700 2.250621
407.800 2.255946
407.900 2.263046
408.000 2.266596
408.100 2.261271
408.200 2.255946
408.300 2.255946
408.400 2.241747
408.500 2.239972
408.600 2.238197
408.700 2.247071
408.800 2.254171
408.900 2.250621
409.000 2.232872
409.100 2.220447
409.200 2.216897
409.300 2.200923
409.400 2.179624
409.500 2.142350
409.600 2.112176
409.700 2.080227
409.800 2.023429
409.900 1.943557
410.000 1.854810
410.100 1.783813
410.200 1.772985
410.300 1.840611
410.400 1.959531
410.500 2.048278
410.600 2.096202
410.700 2.121051
410.800 2.142350
410.900 2.154775
411.000 2.165424
411.100 2.174299
411.200 2.181399
411.300 2.183174
411.400 2.199148
411.500 2.216897
411.600 2.223997
411.700 2.213348
411.800 2.190273
411.900 2.184949
412.000 2.193823
412.100 2.193823
412.200 2.192048
412.300 2.193823
412.400 2.193823
412.500 2.195598
412.600 2.197373
412.700 2.193823
412.800 2.183174
412.900 2.186723
413.000 2.192048
413.100 2.193823
413.200 2.190273
413.300 2.183174
