# Wavelength (nm)   F_lamA (normalized erg/cm2/s/A)9.100 0.000001
9.400 0.000003
9.600 0.000005
9.800 0.000008
10.000 0.000013
10.200 0.000020
10.400 0.000029
10.600 0.000043
10.800 0.000063
11.000 0.000089
11.400 0.000175
11.800 0.000325
12.100 0.000501
12.500 0.000863
12.700 0.001115
12.800 0.001264
13.100 0.001815
13.200 0.002038
13.400 0.002557
13.700 0.003545
14.000 0.004832
14.300 0.006490
14.700 0.009410
15.100 0.013334
15.500 0.018495
15.900 0.025183
16.200 0.031348
16.600 0.041389
17.000 0.053793
17.300 0.064851
17.700 0.082239
18.000 0.097456
18.200 0.108724
18.600 0.134146
19.100 0.171779
19.400 0.197815
19.800 0.236870
20.200 0.280862
20.500 0.317522
21.000 0.385905
21.600 0.480174
22.000 0.550801
22.300 0.608110
22.700 0.690259
23.000 22.744277
23.400 25.033668
24.000 32.186144
24.600 43.707916
25.200 53.329343
25.700 41.657938
26.000 58.940596
26.400 74.023642
26.900 75.235673
27.400 76.402813
27.900 73.589705
28.400 77.165943
29.000 76.746970
29.600 70.851414
30.100 49.872812
30.800 61.574143
31.800 75.879096
32.800 76.088583
33.800 74.547359
34.800 73.170732
35.700 74.203202
36.600 74.981296
37.500 73.739339
38.500 69.833907
39.500 71.509801
40.500 71.539728
41.400 70.537184
42.200 68.741583
43.000 67.559479
44.100 67.529553
45.100 66.332485
46.000 64.477031
47.000 63.250037
48.000 62.591650
49.000 60.556636
50.000 60.272333
50.600 62.816101
51.200 71.584618
52.000 70.207990
53.000 68.876253
54.000 65.479575
55.000 64.357325
56.000 65.689062
57.000 64.701481
58.000 62.786174
59.000 62.217567
60.000 60.362113
61.000 58.491695
62.000 58.805925
63.000 57.429298
64.000 56.740985
65.000 55.349394
65.800 53.882987
66.500 53.882987
67.500 53.134820
68.500 51.204549
69.500 51.054915
70.500 49.079755
71.600 49.094718
72.600 48.256771
73.500 47.463714
74.500 46.356427
75.500 45.383810
76.500 44.141852
77.500 43.633099
78.500 42.690408
79.500 41.942242
80.500 41.298818
81.500 40.595541
82.500 39.922191
83.500 38.291187
84.500 38.380967
85.500 37.557983
86.500 37.064193
87.500 36.390842
88.500 35.702529
89.500 35.014215
90.500 34.146341
91.500 36.465659
92.500 51.324256
93.500 63.100404
94.500 77.659734
95.500 81.026485
96.500 88.807422
97.500 66.990872
98.500 85.470597
99.500 80.038905
100.500 82.388149
101.500 79.604968
102.500 60.915756
103.500 75.160856
104.500 76.193326
105.500 74.472542
106.500 71.449948
107.500 70.342660
108.500 65.838695
109.500 67.649259
110.500 65.599282
111.500 64.102948
112.500 61.648960
113.500 61.379620
114.500 59.733653
115.500 58.252282
116.500 56.965435
117.500 52.536286
118.500 54.122400
119.500 52.670956
120.500 50.591052
121.500 40.011971
122.500 48.466258
123.500 48.196918
124.500 47.149484
125.500 46.550950
126.500 45.563370
127.500 44.680533
128.500 43.737842
129.500 42.450995
130.500 41.613048
131.500 40.984588
132.500 39.967081
133.500 39.024390
134.500 38.410893
135.500 37.587910
136.500 36.705073
137.500 35.852162
138.500 35.208739
139.500 33.263504
140.500 32.126291
141.500 33.098908
142.500 32.320814
143.500 31.782134
144.200 31.303307
144.700 30.974113
145.500 30.450397
146.500 29.851863
147.500 29.283256
148.500 28.759539
149.500 28.161006
150.500 27.607362
151.200 27.218315
151.700 26.948975
152.500 26.500075
153.500 25.751908
154.500 24.704474
155.500 24.360317
156.500 24.315427
157.500 23.971270
158.500 23.582224
159.500 23.133323
160.500 22.519826
161.500 22.100853
162.500 21.681879
163.500 21.083346
164.500 20.170582
165.500 20.634446
166.500 20.290289
167.200 19.931169
167.700 19.931169
168.500 19.631902
169.500 19.272782
170.500 18.898698
171.500 18.404908
172.500 18.165495
173.500 17.956008
174.500 17.611851
175.500 17.297621
176.500 16.983391
177.500 16.729014
178.500 16.444710
179.500 16.160407
180.500 15.906030
181.500 15.621727
182.500 15.352387
183.500 15.098010
184.500 14.795750
185.500 14.515936
186.500 14.298968
187.500 14.095466
188.500 13.805177
189.500 13.549304
190.500 13.393685
191.500 13.130331
192.500 12.884932
193.500 12.735299
194.500 12.560227
195.500 12.293880
196.700 12.117313
197.600 11.964687
198.400 11.785126
199.500 11.545713
200.500 11.409547
201.500 11.244950
202.500 11.078857
203.500 10.890319
204.500 10.718240
205.500 9.109681
206.500 9.450845
207.400 10.261858
207.800 10.249888
208.500 10.160108
209.500 10.025438
210.500 9.883286
211.500 9.781535
212.500 9.633398
213.500 9.479276
214.500 9.331139
215.500 9.254826
216.500 9.040850
217.500 8.979500
218.500 8.775999
219.500 8.726620
220.500 8.594942
221.500 8.386952
222.500 8.342062
223.500 8.226844
224.500 8.107138
225.500 7.900643
226.500 7.872213
227.500 7.764477
228.500 7.655245
229.500 7.496633
230.500 7.348496
231.500 7.333533
232.500 7.146491
233.500 7.122550
234.500 7.016310
235.500 6.932515
236.500 6.826276
237.500 6.737992
238.500 6.538980
239.500 6.547958
240.500 6.459674
241.500 6.375879
242.500 6.302559
243.500 6.215771
244.500 6.136466
245.500 6.054167
246.500 5.973365
247.500 5.892563
248.500 5.816250
249.500 5.648661
250.500 5.662128
251.300 5.395780
251.800 5.558881
252.500 5.510998
253.500 5.440670
254.500 5.370343
255.500 5.310489
256.500 5.240162
257.500 5.178812
258.500 5.109981
259.500 5.041149
260.500 4.975310
261.500 4.909472
262.500 4.857100
263.500 4.804728
264.500 4.770313
265.500 4.711956
266.500 4.644621
267.500 4.592249
268.500 4.545863
269.500 4.474039
270.500 4.433638
271.500 4.370792
272.500 4.309442
273.500 4.203202
274.500 4.197217
275.500 4.156816
276.500 4.107437
277.500 4.080503
278.500 4.020649
279.500 3.927877
280.500 3.891965
281.500 3.896454
282.500 3.850067
283.500 3.809666
284.500 3.769265
285.500 3.719886
286.500 3.689960
287.500 3.648062
288.500 3.610654
289.500 3.568757
291.000 3.522370
293.000 3.444561
295.000 3.360766
297.000 3.300913
299.000 3.233578
301.000 3.157265
303.000 3.080952
305.000 3.009128
307.000 2.937304
309.000 2.871465
311.000 2.802634
313.000 2.736795
315.000 2.679934
317.000 2.621577
319.000 2.543768
321.000 2.483914
323.000 2.442017
325.000 2.397127
327.000 2.352237
329.000 2.305851
331.000 2.262457
332.200 2.190633
332.300 2.205596
332.400 2.204100
332.500 2.211582
332.600 2.193626
332.700 2.163699
332.800 2.150232
332.900 2.154721
333.000 2.165195
333.100 2.166692
333.200 2.157714
333.300 2.141254
333.400 2.127787
333.500 2.118809
333.600 2.102349
333.700 2.097860
333.800 2.102349
333.900 2.108335
334.000 2.093371
334.100 2.088882
334.200 2.091875
334.300 2.133772
334.400 2.172677
334.500 2.190633
334.600 2.198115
334.700 2.192129
334.800 2.162203
334.900 2.112824
335.000 2.043992
335.100 2.043992
335.200 2.066437
335.300 2.076912
335.400 2.075415
335.500 2.061948
335.600 2.049978
335.700 2.038007
335.800 2.020051
335.900 2.002095
336.000 1.997606
336.100 2.009577
336.200 2.035014
336.300 2.052970
336.400 2.060452
336.500 2.043992
336.600 2.018555
336.700 2.002095
336.800 1.985635
336.900 1.979650
337.000 1.984139
337.100 1.982643
337.200 1.972168
337.300 1.990124
337.400 2.012569
337.500 2.039503
337.600 2.049978
337.700 2.035014
337.800 2.018555
337.900 2.017058
338.000 2.029029
338.100 2.051474
338.200 2.058956
338.300 2.060452
338.400 2.049978
338.500 2.057459
338.600 2.069430
338.700 2.078408
338.800 2.082897
338.900 2.064941
339.000 2.052970
339.100 2.049978
339.200 2.058956
339.300 2.070926
339.400 2.099357
339.500 2.108335
339.600 2.099357
339.700 2.087386
339.800 2.073919
339.900 2.033518
340.000 2.005088
340.100 2.000599
340.200 1.978154
340.300 1.972168
340.400 1.979650
340.500 1.990124
340.600 1.982643
340.700 1.975161
340.800 1.978154
340.900 1.982643
341.000 1.994613
341.100 1.976657
341.200 1.973665
341.300 1.985635
341.400 2.002095
341.500 2.015562
341.600 2.018555
341.700 2.024540
341.800 2.027533
341.900 2.036511
342.000 2.039503
342.100 2.043992
342.200 2.042496
342.300 2.039503
342.400 2.029029
342.500 2.024540
342.600 2.026036
342.700 2.032022
342.800 2.048481
342.900 2.057459
343.000 2.045489
343.100 2.030525
343.200 2.017058
343.300 2.015562
343.400 2.023044
343.500 2.041000
343.600 2.049978
343.700 2.045489
343.800 2.027533
343.900 2.002095
344.000 1.967679
344.100 1.948227
344.200 1.948227
344.300 1.966183
344.400 1.984139
344.500 1.975161
344.600 1.975161
344.700 1.976657
344.800 1.997606
344.900 2.015562
345.000 1.976657
345.100 1.937753
345.200 1.921293
345.300 1.921293
345.400 1.933264
345.500 1.942242
345.600 1.946731
345.700 1.943738
345.800 1.931767
345.900 1.921293
346.000 1.912315
346.100 1.910818
346.200 1.928775
346.300 1.996110
346.400 1.973665
346.500 1.966183
346.600 1.967679
346.700 1.963190
346.800 1.963190
346.900 1.975161
347.000 1.981146
347.100 1.951220
347.200 1.945234
347.300 1.961694
347.400 1.949723
347.500 1.931767
347.600 1.909322
347.700 1.874906
347.800 1.847972
347.900 1.850965
348.000 1.880892
348.100 1.912315
348.200 1.906329
348.300 1.882388
348.400 1.883884
348.500 1.921293
348.600 1.940745
348.700 1.952716
348.800 1.970672
348.900 1.967679
349.000 1.945234
349.100 1.933264
349.200 1.949723
349.300 1.952716
349.400 1.949723
349.500 1.934760
349.600 1.900344
349.700 1.898848
349.800 1.916804
349.900 1.945234
350.000 1.939249
350.100 1.898848
350.200 1.895855
350.300 1.904833
350.400 1.897351
350.500 1.876403
350.600 1.865928
350.700 1.870417
350.800 1.880892
350.900 1.880892
351.000 1.874906
351.100 1.870417
351.200 1.864432
351.300 1.856950
351.400 1.862936
351.500 1.864432
351.600 1.883884
351.700 1.886877
351.800 1.889870
351.900 1.888373
352.000 1.877899
352.100 1.868921
352.200 1.864432
352.300 1.864432
352.400 1.873410
352.500 1.846476
352.600 1.843483
352.700 1.846476
352.800 1.862936
352.900 1.885381
353.000 1.894359
353.100 1.898848
353.200 1.907826
353.300 1.898848
353.400 1.877899
353.500 1.873410
353.600 1.877899
353.700 1.865928
353.800 1.867425
353.900 1.873410
354.000 1.891366
354.100 1.901840
354.200 1.892862
354.300 1.885381
354.400 1.888373
354.500 1.894359
354.600 1.888373
354.700 1.894359
354.800 1.906329
354.900 1.904833
355.000 1.889870
355.100 1.882388
355.200 1.885381
355.300 1.892862
355.400 1.891366
355.500 1.882388
355.600 1.871914
355.700 1.880892
355.800 1.888373
355.900 1.885381
356.000 1.880892
356.100 1.888373
356.200 1.895855
356.300 1.888373
356.400 1.883884
356.500 1.880892
356.600 1.870417
356.700 1.843483
356.800 1.847972
356.900 1.847972
357.000 1.824031
357.100 1.782134
357.200 1.773156
357.300 1.774652
357.400 1.771659
357.500 1.777645
357.600 1.786623
357.700 1.792608
357.800 1.797097
357.900 1.794104
358.000 1.798593
358.100 1.797097
358.200 1.783630
358.300 1.786623
358.400 1.795601
358.500 1.780637
358.600 1.753703
358.700 1.740236
358.800 1.735747
358.900 1.738740
359.000 1.756696
359.100 1.774652
359.200 1.783630
359.300 1.792608
359.400 1.794104
359.500 1.791112
359.600 1.786623
359.700 1.789615
359.800 1.800090
359.900 1.812060
360.000 1.830016
360.100 1.822535
360.200 1.812060
360.300 1.789615
360.400 1.777645
360.500 1.783630
360.600 1.786623
360.700 1.788119
360.800 1.795601
360.900 1.798593
361.000 1.786623
361.100 1.761185
361.200 1.764178
361.300 1.762681
361.400 1.750711
361.500 1.758192
361.600 1.783630
361.700 1.801586
361.800 1.798593
361.900 1.783630
362.000 1.764178
362.100 1.768667
362.200 1.797097
362.300 1.801586
362.400 1.794104
362.500 1.792608
362.600 1.804579
362.700 1.821038
362.800 1.816549
362.900 1.803082
363.000 1.794104
363.100 1.782134
363.200 1.761185
363.300 1.756696
363.400 1.782134
363.500 1.792608
363.600 1.764178
363.700 1.747718
363.800 1.755200
363.900 1.761185
364.000 1.765674
364.100 1.771659
364.200 1.764178
364.300 1.741733
364.400 1.719288
364.500 1.714799
364.600 1.722280
364.700 1.728266
364.800 1.737244
364.900 1.740236
365.000 1.738740
365.100 1.731258
365.200 1.734251
365.300 1.737244
365.400 1.738740
365.500 1.749214
365.600 1.755200
365.700 1.752207
365.800 1.752207
365.900 1.749214
366.000 1.735747
366.100 1.731258
366.200 1.728266
366.300 1.734251
366.400 1.740236
366.500 1.737244
366.600 1.734251
366.700 1.729762
366.800 1.726769
366.900 1.731258
367.000 1.729762
367.100 1.723777
367.200 1.728266
367.300 1.732755
367.400 1.729762
367.500 1.725273
367.600 1.728266
367.700 1.716295
367.800 1.705821
367.900 1.702828
368.000 1.708813
368.100 1.720784
368.200 1.732755
368.300 1.723777
368.400 1.707317
368.500 1.701332
368.600 1.695346
368.700 1.692354
368.800 1.708813
368.900 1.737244
369.000 1.752207
369.100 1.743229
369.200 1.740236
369.300 1.747718
369.400 1.749214
369.500 1.746222
369.600 1.732755
369.700 1.714799
369.800 1.714799
369.900 1.747718
370.000 1.798593
370.100 1.801586
370.200 1.764178
370.300 1.701332
370.400 1.648960
370.500 1.626515
370.600 1.648960
370.700 1.689361
370.800 1.714799
370.900 1.710310
371.000 1.680383
371.100 1.647464
371.200 1.625019
371.300 1.635493
371.400 1.692354
371.500 1.762681
371.600 1.792608
371.700 1.806075
371.800 1.806075
371.900 1.752207
372.000 1.659434
372.100 1.593596
372.200 1.557684
372.300 1.563669
372.400 1.631004
372.500 1.717791
372.600 1.753703
372.700 1.767170
372.800 1.774652
372.900 1.785126
373.000 1.788119
373.100 1.756696
373.200 1.681879
373.300 1.605566
373.400 1.532246
373.500 1.500823
373.600 1.526261
373.700 1.601077
373.800 1.669909
373.900 1.750711
374.000 1.801586
374.100 1.819542
374.200 1.804579
374.300 1.782134
374.400 1.767170
374.500 1.744725
374.600 1.696843
374.700 1.626515
374.800 1.563669
374.900 1.485261
375.000 1.454586
375.100 1.492593
375.200 1.578632
375.300 1.657938
375.400 1.720784
375.500 1.762681
375.600 1.786623
375.700 1.768667
375.800 1.711806
375.900 1.669909
376.000 1.653449
376.100 1.656442
376.200 1.707317
376.300 1.744725
376.400 1.749214
376.500 1.735747
376.600 1.704324
376.700 1.659434
376.800 1.595092
376.900 1.529253
377.000 1.469250
377.100 1.453539
377.200 1.503816
377.300 1.592099
377.400 1.654945
377.500 1.687865
377.600 1.707317
377.700 1.735747
377.800 1.771659
377.900 1.791112
378.000 1.807571
378.100 1.821038
378.200 1.827024
378.300 1.813557
378.400 1.804579
378.500 1.807571
378.600 1.791112
378.700 1.756696
378.800 1.732755
378.900 1.734251
379.000 1.738740
379.100 1.738740
379.200 1.735747
379.300 1.717791
379.400 1.663923
379.500 1.584618
379.600 1.500823
379.700 1.420769
379.800 1.380667
379.900 1.399521
380.000 1.503816
380.100 1.622026
380.200 1.702828
380.300 1.747718
380.400 1.774652
380.500 1.788119
380.600 1.767170
380.700 1.761185
380.800 1.768667
380.900 1.791112
381.000 1.819542
381.100 1.827024
381.200 1.792608
381.300 1.746222
381.400 1.708813
381.500 1.701332
381.600 1.713302
381.700 1.734251
381.800 1.743229
381.900 1.731258
382.000 1.705821
382.100 1.683376
382.200 1.710310
382.300 1.744725
382.400 1.726769
382.500 1.690857
382.600 1.665420
382.700 1.675894
382.800 1.684872
382.900 1.669909
383.000 1.644471
383.100 1.610055
383.200 1.547209
383.300 1.453988
383.400 1.358671
383.500 1.306898
383.600 1.308095
383.700 1.379321
383.800 1.467904
383.900 1.544217
384.000 1.592099
384.100 1.635493
384.200 1.669909
384.300 1.710310
384.400 1.749214
384.500 1.776148
384.600 1.771659
384.700 1.770163
384.800 1.764178
384.900 1.759689
385.000 1.744725
385.100 1.750711
385.200 1.767170
385.300 1.777645
385.400 1.776148
385.500 1.765674
385.600 1.743229
385.700 1.731258
385.800 1.729762
385.900 1.737244
386.000 1.738740
386.100 1.753703
386.200 1.761185
386.300 1.750711
386.400 1.750711
386.500 1.743229
386.600 1.735747
386.700 1.749214
386.800 1.771659
386.900 1.780637
387.000 1.765674
387.100 1.738740
387.200 1.699835
387.300 1.680383
387.400 1.692354
387.500 1.720784
387.600 1.737244
387.700 1.719288
387.800 1.693850
387.900 1.686368
388.000 1.707317
388.100 1.713302
388.200 1.690857
388.300 1.663923
388.400 1.642975
388.500 1.593596
388.600 1.506808
388.700 1.393536
388.800 1.305102
388.900 1.265899
389.000 1.314829
389.100 1.434535
389.200 1.551698
389.300 1.626515
389.400 1.656442
389.500 1.662427
389.600 1.665420
389.700 1.683376
389.800 1.693850
389.900 1.678887
390.000 1.671405
390.100 1.693850
390.200 1.720784
390.300 1.734251
390.400 1.732755
390.500 1.725273
390.600 1.704324
390.700 1.707317
390.800 1.746222
390.900 1.783630
391.000 1.791112
391.100 1.789615
391.200 1.776148
391.300 1.741733
391.400 1.716295
391.500 1.720784
391.600 1.731258
391.700 1.734251
391.800 1.729762
391.900 1.710310
392.000 1.701332
392.100 1.698339
392.200 1.687865
392.300 1.675894
392.400 1.675894
392.500 1.686368
392.600 1.672901
392.700 1.651953
392.800 1.611552
392.900 1.568158
393.000 1.515786
393.100 1.436630
393.200 1.289241
393.300 1.099805
393.400 1.087087
393.500 1.220859
393.600 1.337723
393.700 1.426605
393.800 1.505312
393.900 1.568158
394.000 1.625019
394.100 1.656442
394.200 1.666916
394.300 1.665420
394.400 1.666916
394.500 1.656442
394.600 1.663923
394.700 1.681879
394.800 1.683376
394.900 1.668412
395.000 1.657938
395.100 1.654945
395.200 1.656442
395.300 1.666916
395.400 1.680383
395.500 1.684872
395.600 1.669909
395.700 1.645967
395.800 1.638486
395.900 1.650456
396.000 1.656442
396.100 1.638486
396.200 1.598085
396.300 1.551698
396.400 1.500823
396.500 1.435732
396.600 1.334431
396.700 1.143798
396.800 0.951369
396.900 0.877301
397.000 0.921293
397.100 1.036361
397.200 1.192877
397.300 1.324405
397.400 1.425707
397.500 1.503816
397.600 1.565165
397.700 1.596588
397.800 1.611552
397.900 1.636989
398.000 1.648960
398.100 1.647464
398.200 1.632500
398.300 1.622026
398.400 1.639982
398.500 1.666916
398.600 1.653449
398.700 1.616041
398.800 1.653449
398.900 1.668412
399.000 1.678887
399.100 1.689361
399.200 1.701332
399.300 1.713302
399.400 1.707317
399.500 1.693850
399.600 1.663923
399.700 1.647464
399.800 1.645967
399.900 1.653449
400.000 1.659434
400.100 1.665420
400.200 1.668412
400.300 1.668412
400.400 1.668412
400.500 1.656442
400.600 1.651953
400.700 1.662427
400.800 1.684872
400.900 1.692354
401.000 1.686368
401.100 1.683376
401.200 1.675894
401.300 1.672901
401.400 1.680383
401.500 1.690857
401.600 1.701332
401.700 1.713302
401.800 1.722280
401.900 1.731258
402.000 1.732755
402.100 1.716295
402.200 1.696843
402.300 1.665420
402.400 1.628011
402.500 1.599581
402.600 1.613048
402.700 1.645967
402.800 1.669909
402.900 1.675894
403.000 1.674398
403.100 1.663923
403.200 1.662427
403.300 1.666916
403.400 1.674398
403.500 1.684872
403.600 1.696843
403.700 1.714799
403.800 1.729762
403.900 1.726769
404.000 1.723777
404.100 1.720784
404.200 1.713302
404.300 1.704324
404.400 1.690857
404.500 1.668412
404.600 1.647464
404.700 1.668412
404.800 1.696843
404.900 1.708813
405.000 1.708813
405.100 1.710310
405.200 1.710310
405.300 1.698339
405.400 1.692354
405.500 1.698339
405.600 1.707317
405.700 1.713302
405.800 1.722280
405.900 1.732755
406.000 1.722280
406.100 1.689361
406.200 1.683376
406.300 1.674398
406.400 1.633997
406.500 1.580129
406.600 1.613048
406.700 1.644471
406.800 1.647464
406.900 1.645967
407.000 1.639982
407.100 1.625019
407.200 1.617537
407.300 1.616041
407.400 1.633997
407.500 1.635493
407.600 1.607063
407.700 1.575640
407.800 1.565165
407.900 1.598085
408.000 1.638486
408.100 1.662427
408.200 1.665420
408.300 1.659434
408.400 1.642975
408.500 1.631004
408.600 1.625019
408.700 1.639982
408.800 1.660931
408.900 1.674398
409.000 1.671405
409.100 1.665420
409.200 1.662427
409.300 1.641478
409.400 1.623522
409.500 1.599581
409.600 1.569654
409.700 1.533742
409.800 1.473590
409.900 1.404160
410.000 1.310938
410.100 1.212629
410.200 1.160557
410.300 1.212629
410.400 1.342212
410.500 1.475834
410.600 1.545713
410.700 1.571151
410.800 1.581625
410.900 1.581625
411.000 1.580129
411.100 1.589107
411.200 1.608559
411.300 1.629508
411.400 1.651953
411.500 1.668412
411.600 1.675894
411.700 1.662427
411.800 1.636989
411.900 1.616041
412.000 1.614544
412.100 1.616041
412.200 1.607063
412.300 1.602574
412.400 1.619033
412.500 1.639982
412.600 1.647464
412.700 1.628011
412.800 1.599581
412.900 1.593596
413.000 1.599581
413.100 1.604070
413.200 1.598085
413.300 1.598085
413.400 1.613048
413.500 1.631004
413.600 1.644471
413.700 1.654945
413.800 1.666916
413.900 1.675894
414.000 1.678887
414.100 1.672901
414.200 1.648960
414.300 1.614544
