# Wavelength (nm)   F_lamA (normalized erg/cm2/s/A)9.100 0.000001
9.400 0.000002
9.600 0.000004
9.800 0.000006
10.000 0.000009
10.200 0.000014
10.400 0.000021
10.600 0.000031
10.800 0.000046
11.000 0.000065
11.400 0.000127
11.800 0.000236
12.100 0.000365
12.500 0.000627
12.700 0.000811
12.800 0.000919
13.100 0.001320
13.200 0.001484
13.400 0.001860
13.700 0.002578
14.000 0.003515
14.300 0.004721
14.700 0.006845
15.100 0.009700
15.500 0.013462
15.900 0.018319
16.200 0.022802
16.600 0.030110
17.000 0.039132
17.300 0.047176
17.700 0.059824
18.000 0.070890
18.200 0.079088
18.600 0.097582
19.100 0.124945
19.400 0.143956
19.800 0.172308
20.200 0.204396
20.500 0.230989
21.000 0.280659
21.600 0.349341
22.000 0.400769
22.300 0.442418
22.700 0.502088
23.000 16.549451
23.400 18.219780
24.000 23.538462
24.600 32.197802
25.200 39.362637
25.700 30.428571
26.000 43.494505
26.400 54.923077
26.900 55.901099
27.400 56.769231
27.900 54.571429
28.400 57.417582
29.000 57.131868
29.600 52.516484
30.100 36.384615
30.800 45.230769
31.800 56.318681
32.800 56.461538
33.800 55.340659
34.800 54.329670
35.700 55.109890
36.600 55.758242
37.500 54.824176
38.500 51.890110
39.500 53.219780
40.500 53.296703
41.400 52.571429
42.200 51.241758
43.000 50.373626
44.100 50.439560
45.100 49.593407
46.000 48.241758
47.000 47.384615
48.000 46.956044
49.000 45.461538
50.000 45.340659
50.600 48.725275
51.200 57.626374
52.000 56.505495
53.000 55.483516
54.000 52.571429
55.000 51.912088
56.000 53.285714
57.000 52.571429
58.000 50.934066
59.000 50.681319
60.000 49.175824
61.000 47.769231
62.000 48.252747
63.000 47.197802
64.000 46.692308
65.000 45.626374
65.800 44.472527
66.500 44.538462
67.500 44.043956
68.500 42.439560
69.500 42.494505
70.500 40.835165
71.600 41.054945
72.600 40.428571
73.500 39.868132
74.500 38.989011
75.500 38.252747
76.500 37.274725
77.500 36.923077
78.500 36.252747
79.500 35.681319
80.500 35.186813
81.500 34.670330
82.500 34.197802
83.500 32.747253
84.500 33.010989
85.500 32.395604
86.500 32.032967
87.500 31.527473
88.500 31.010989
89.500 30.483516
90.500 29.780220
91.500 31.604396
92.500 51.384615
93.500 67.472527
94.500 88.582418
95.500 94.000000
96.500 105.131868
97.500 73.692308
98.500 101.846154
99.500 95.450549
100.500 98.681319
101.500 94.901099
102.500 68.230769
103.500 89.318681
104.500 92.263736
105.500 90.241758
106.500 86.065934
107.500 85.164835
108.500 79.494505
109.500 82.230769
110.500 79.604396
111.500 77.868132
112.500 74.549451
113.500 74.725275
114.500 72.571429
115.500 71.021978
116.500 69.560440
117.500 63.065934
118.500 65.967033
119.500 64.032967
120.500 60.978022
121.500 45.516484
122.500 58.703297
123.500 59.021978
124.500 57.747253
125.500 57.098901
126.500 55.901099
127.500 54.923077
128.500 53.802198
129.500 51.967033
130.500 51.065934
131.500 50.483516
132.500 49.186813
133.500 47.923077
134.500 47.362637
135.500 46.406593
136.500 45.318681
137.500 44.318681
138.500 43.527473
139.500 40.934066
140.500 39.681319
141.500 40.956044
142.500 39.956044
143.500 39.362637
144.200 38.802198
144.700 38.406593
145.500 37.747253
146.500 37.021978
147.500 36.318681
148.500 35.681319
149.500 34.945055
150.500 34.230769
151.200 33.747253
151.700 33.428571
152.500 32.879121
153.500 31.824176
154.500 30.593407
155.500 30.131868
156.500 30.142857
157.500 29.780220
158.500 29.329670
159.500 28.802198
160.500 27.956044
161.500 27.439560
162.500 26.967033
163.500 26.307692
164.500 25.175824
165.500 25.747253
166.500 25.329670
167.200 24.846154
167.700 24.934066
168.500 24.549451
169.500 24.087912
170.500 23.615385
171.500 23.010989
172.500 22.692308
173.500 22.483516
174.500 22.054945
175.500 21.670330
176.500 21.274725
177.500 20.956044
178.500 20.637363
179.500 20.296703
180.500 19.989011
181.500 19.615385
182.500 19.296703
183.500 18.989011
184.500 18.560440
185.500 18.197802
186.500 17.945055
187.500 17.725275
188.500 17.318681
189.500 16.967033
190.500 16.846154
191.500 16.472527
192.500 16.164835
193.500 16.021978
194.500 15.824176
195.500 15.439560
196.700 15.274725
197.600 15.109890
198.400 14.857143
199.500 14.538462
200.500 14.406593
201.500 14.219780
202.500 14.021978
203.500 13.769231
204.500 13.560440
205.500 11.714286
206.500 12.098901
207.400 13.021978
207.800 12.945055
208.500 12.846154
209.500 12.648352
210.500 12.505495
211.500 12.373626
212.500 12.197802
213.500 12.010989
214.500 11.824176
215.500 11.725275
216.500 11.472527
217.500 11.373626
218.500 11.142857
219.500 11.065934
220.500 10.902198
221.500 10.659341
222.500 10.585714
223.500 10.439560
224.500 10.294505
225.500 10.051648
226.500 10.002198
227.500 9.865934
228.500 9.728571
229.500 9.516484
230.500 9.362637
231.500 9.326374
232.500 9.029670
233.500 9.062637
234.500 8.932967
235.500 8.825275
236.500 8.694505
237.500 8.582418
238.500 8.353846
239.500 8.346154
240.500 8.236264
241.500 8.128571
242.500 8.032967
243.500 7.923077
244.500 7.823077
245.500 7.720879
246.500 7.618681
247.500 7.517582
248.500 7.421978
249.500 7.187912
250.500 7.227473
251.300 6.926374
251.800 7.097802
252.500 7.039560
253.500 6.950549
254.500 6.858242
255.500 6.783516
256.500 6.696703
257.500 6.617582
258.500 6.532967
259.500 6.448352
260.500 6.367033
261.500 6.284615
262.500 6.216484
263.500 6.143956
264.500 6.093407
265.500 6.019780
266.500 5.936264
267.500 5.865934
268.500 5.813187
269.500 5.718681
270.500 5.670330
271.500 5.595604
272.500 5.509890
273.500 5.394505
274.500 5.382418
275.500 5.326374
276.500 5.251648
277.500 5.219780
278.500 5.151648
279.500 5.046154
280.500 5.002198
281.500 4.984615
282.500 4.914286
283.500 4.865934
284.500 4.819780
285.500 4.759341
286.500 4.716484
287.500 4.662637
288.500 4.613187
289.500 4.560440
291.000 4.494505
293.000 4.394505
295.000 4.283516
297.000 4.208791
299.000 4.120879
301.000 4.017582
303.000 3.915385
305.000 3.818681
307.000 3.724176
309.000 3.634066
311.000 3.543956
313.000 3.457143
315.000 3.378022
317.000 3.300000
319.000 3.200000
321.000 3.125275
323.000 3.067033
325.000 3.003297
327.000 2.940659
329.000 2.875824
331.000 2.817582
332.200 2.732967
332.300 2.752747
332.400 2.743956
332.500 2.742857
332.600 2.721978
332.700 2.695604
332.800 2.680220
332.900 2.683516
333.000 2.691209
333.100 2.689011
333.200 2.676923
333.300 2.654945
333.400 2.640659
333.500 2.629670
333.600 2.612088
333.700 2.604396
333.800 2.601099
333.900 2.601099
334.000 2.585714
334.100 2.590110
334.200 2.598901
334.300 2.652747
334.400 2.693407
334.500 2.715385
334.600 2.731868
334.700 2.734066
334.800 2.696703
334.900 2.632967
335.000 2.530769
335.100 2.527473
335.200 2.553846
335.300 2.567033
335.400 2.562637
335.500 2.546154
335.600 2.540659
335.700 2.538462
335.800 2.532967
335.900 2.525275
336.000 2.526374
336.100 2.534066
336.200 2.550549
336.300 2.553846
336.400 2.552747
336.500 2.527473
336.600 2.502198
336.700 2.483516
336.800 2.472527
336.900 2.472527
337.000 2.487912
337.100 2.484615
337.200 2.464835
337.300 2.474725
337.400 2.494505
337.500 2.526374
337.600 2.536264
337.700 2.510989
337.800 2.496703
337.900 2.497802
338.000 2.520879
338.100 2.547253
338.200 2.557143
338.300 2.553846
338.400 2.540659
338.500 2.552747
338.600 2.569231
338.700 2.582418
338.800 2.583516
338.900 2.558242
339.000 2.547253
339.100 2.543956
339.200 2.559341
339.300 2.574725
339.400 2.609890
339.500 2.615385
339.600 2.596703
339.700 2.569231
339.800 2.545055
339.900 2.490110
340.000 2.459341
340.100 2.462637
340.200 2.443956
340.300 2.434066
340.400 2.443956
340.500 2.453846
340.600 2.445055
340.700 2.440659
340.800 2.448352
340.900 2.457143
341.000 2.465934
341.100 2.435165
341.200 2.432967
341.300 2.451648
341.400 2.475824
341.500 2.493407
341.600 2.494505
341.700 2.496703
341.800 2.500000
341.900 2.506593
342.000 2.508791
342.100 2.513187
342.200 2.510989
342.300 2.510989
342.400 2.502198
342.500 2.494505
342.600 2.497802
342.700 2.504396
342.800 2.521978
342.900 2.526374
343.000 2.506593
343.100 2.495604
343.200 2.486813
343.300 2.489011
343.400 2.495604
343.500 2.510989
343.600 2.518681
343.700 2.513187
343.800 2.495604
343.900 2.470330
344.000 2.429670
344.100 2.409890
344.200 2.410989
344.300 2.434066
344.400 2.453846
344.500 2.437363
344.600 2.430769
344.700 2.429670
344.800 2.451648
344.900 2.472527
345.000 2.418681
345.100 2.373626
345.200 2.356044
345.300 2.358242
345.400 2.371429
345.500 2.376923
345.600 2.379121
345.700 2.375824
345.800 2.365934
345.900 2.357143
346.000 2.348352
346.100 2.348352
346.200 2.368132
346.300 2.446154
346.400 2.413187
346.500 2.405495
346.600 2.413187
346.700 2.408791
346.800 2.403297
346.900 2.409890
347.000 2.417582
347.100 2.380220
347.200 2.373626
347.300 2.401099
347.400 2.393407
347.500 2.376923
347.600 2.349451
347.700 2.300000
347.800 2.258242
347.900 2.253846
348.000 2.286813
348.100 2.326374
348.200 2.316484
348.300 2.285714
348.400 2.289011
348.500 2.337363
348.600 2.361538
348.700 2.376923
348.800 2.406593
348.900 2.408791
349.000 2.385714
349.100 2.375824
349.200 2.396703
349.300 2.397802
349.400 2.394505
349.500 2.378022
349.600 2.342857
349.700 2.342857
349.800 2.361538
349.900 2.379121
350.000 2.360440
350.100 2.312088
350.200 2.312088
350.300 2.324176
350.400 2.310989
350.500 2.282418
350.600 2.269231
350.700 2.278022
350.800 2.293407
350.900 2.294505
351.000 2.289011
351.100 2.286813
351.200 2.279121
351.300 2.269231
351.400 2.278022
351.500 2.281319
351.600 2.300000
351.700 2.294505
351.800 2.294505
351.900 2.296703
352.000 2.292308
352.100 2.284615
352.200 2.276923
352.300 2.275824
352.400 2.293407
352.500 2.263736
352.600 2.260440
352.700 2.262637
352.800 2.276923
352.900 2.297802
353.000 2.306593
353.100 2.315385
353.200 2.327473
353.300 2.313187
353.400 2.285714
353.500 2.280220
353.600 2.285714
353.700 2.268132
353.800 2.267033
353.900 2.271429
354.000 2.292308
354.100 2.306593
354.200 2.300000
354.300 2.289011
354.400 2.292308
354.500 2.298901
354.600 2.290110
354.700 2.298901
354.800 2.312088
354.900 2.312088
355.000 2.294505
355.100 2.283516
355.200 2.290110
355.300 2.302198
355.400 2.300000
355.500 2.286813
355.600 2.272527
355.700 2.280220
355.800 2.289011
355.900 2.286813
356.000 2.281319
356.100 2.290110
356.200 2.300000
356.300 2.291209
356.400 2.280220
356.500 2.283516
356.600 2.282418
356.700 2.254945
356.800 2.259341
356.900 2.252747
357.000 2.221978
357.100 2.167033
357.200 2.157143
357.300 2.161538
357.400 2.154945
357.500 2.160440
357.600 2.173626
357.700 2.176923
357.800 2.176923
357.900 2.169231
358.000 2.175824
358.100 2.180220
358.200 2.169231
358.300 2.169231
358.400 2.174725
358.500 2.162637
358.600 2.143956
358.700 2.131868
358.800 2.124176
358.900 2.123077
359.000 2.143956
359.100 2.158242
359.200 2.159341
359.300 2.165934
359.400 2.168132
359.500 2.163736
359.600 2.157143
359.700 2.160440
359.800 2.169231
359.900 2.182418
360.000 2.204396
360.100 2.197802
360.200 2.193407
360.300 2.171429
360.400 2.157143
360.500 2.160440
360.600 2.162637
360.700 2.164835
360.800 2.174725
360.900 2.181319
361.000 2.172527
361.100 2.141758
361.200 2.142857
361.300 2.139560
361.400 2.125275
361.500 2.128571
361.600 2.152747
361.700 2.169231
361.800 2.174725
361.900 2.168132
362.000 2.143956
362.100 2.145055
362.200 2.174725
362.300 2.179121
362.400 2.167033
362.500 2.165934
362.600 2.180220
362.700 2.194505
362.800 2.184615
362.900 2.168132
363.000 2.168132
363.100 2.165934
363.200 2.148352
363.300 2.140659
363.400 2.165934
363.500 2.169231
363.600 2.126374
363.700 2.106593
363.800 2.112088
363.900 2.116484
364.000 2.123077
364.100 2.134066
364.200 2.134066
364.300 2.110989
364.400 2.082418
364.500 2.076923
364.600 2.083516
364.700 2.091209
364.800 2.101099
364.900 2.104396
365.000 2.101099
365.100 2.091209
365.200 2.090110
365.300 2.089011
365.400 2.087912
365.500 2.098901
365.600 2.105495
365.700 2.100000
365.800 2.097802
365.900 2.093407
366.000 2.080220
366.100 2.075824
366.200 2.074725
366.300 2.082418
366.400 2.087912
366.500 2.082418
366.600 2.079121
366.700 2.071429
366.800 2.067033
366.900 2.073626
367.000 2.074725
367.100 2.070330
367.200 2.068132
367.300 2.067033
367.400 2.063736
367.500 2.059341
367.600 2.067033
367.700 2.054945
367.800 2.043956
367.900 2.041758
368.000 2.046154
368.100 2.056044
368.200 2.064835
368.300 2.057143
368.400 2.041758
368.500 2.036264
368.600 2.031868
368.700 2.027473
368.800 2.042857
368.900 2.068132
369.000 2.074725
369.100 2.062637
369.200 2.062637
369.300 2.072527
369.400 2.068132
369.500 2.060440
369.600 2.046154
369.700 2.028571
369.800 2.028571
369.900 2.060440
370.000 2.107692
370.100 2.105495
370.200 2.061538
370.300 1.996703
370.400 1.949451
370.500 1.932967
370.600 1.962637
370.700 2.003297
370.800 2.027473
370.900 2.018681
371.000 1.983516
371.100 1.945055
371.200 1.918681
371.300 1.929670
371.400 1.987912
371.500 2.062637
371.600 2.094505
371.700 2.102198
371.800 2.098901
371.900 2.039560
372.000 1.940659
372.100 1.878022
372.200 1.850549
372.300 1.869231
372.400 1.932967
372.500 2.005495
372.600 2.037363
372.700 2.059341
372.800 2.072527
372.900 2.081319
373.000 2.082418
373.100 2.042857
373.200 1.964835
373.300 1.881319
373.400 1.807692
373.500 1.783516
373.600 1.817582
373.700 1.898901
373.800 1.972527
373.900 2.053846
374.000 2.105495
374.100 2.125275
374.200 2.113187
374.300 2.085714
374.400 2.070330
374.500 2.048352
374.600 1.998901
374.700 1.921978
374.800 1.843956
374.900 1.752747
375.000 1.721978
375.100 1.761538
375.200 1.847253
375.300 1.923077
375.400 1.989011
375.500 2.035165
375.600 2.062637
375.700 2.049451
375.800 2.007692
375.900 1.974725
376.000 1.958242
376.100 1.957143
376.200 2.012088
376.300 2.046154
376.400 2.041758
376.500 2.016484
376.600 1.975824
376.700 1.923077
376.800 1.848352
376.900 1.768132
377.000 1.695604
377.100 1.680220
377.200 1.741758
377.300 1.839560
377.400 1.914286
377.500 1.960440
377.600 1.987912
377.700 2.015385
377.800 2.047253
377.900 2.061538
378.000 2.075824
378.100 2.089011
378.200 2.097802
378.300 2.085714
378.400 2.074725
378.500 2.083516
378.600 2.075824
378.700 2.047253
378.800 2.026374
378.900 2.019780
379.000 2.013187
379.100 2.004396
379.200 1.994505
379.300 1.973626
379.400 1.915385
379.500 1.830769
379.600 1.729670
379.700 1.635165
379.800 1.592308
379.900 1.626374
380.000 1.745055
380.100 1.865934
380.200 1.947253
380.300 1.993407
380.400 2.020879
380.500 2.041758
380.600 2.025275
380.700 2.023077
380.800 2.036264
380.900 2.057143
381.000 2.081319
381.100 2.090110
381.200 2.062637
381.300 2.027473
381.400 2.000000
381.500 1.992308
381.600 1.995604
381.700 2.006593
381.800 2.003297
381.900 1.987912
382.000 1.964835
382.100 1.950549
382.200 1.981319
382.300 2.010989
382.400 1.998901
382.500 1.971429
382.600 1.946154
382.700 1.953846
382.800 1.957143
382.900 1.932967
383.000 1.897802
383.100 1.853846
383.200 1.783516
383.300 1.680220
383.400 1.567033
383.500 1.503297
383.600 1.508791
383.700 1.594505
383.800 1.697802
383.900 1.787912
384.000 1.846154
384.100 1.890110
384.200 1.926374
384.300 1.969231
384.400 2.009890
384.500 2.038462
384.600 2.030769
384.700 2.028571
384.800 2.023077
384.900 2.024176
385.000 2.013187
385.100 2.020879
385.200 2.035165
385.300 2.039560
385.400 2.034066
385.500 2.020879
385.600 2.000000
385.700 1.986813
385.800 1.987912
385.900 2.004396
386.000 2.009890
386.100 2.024176
386.200 2.020879
386.300 2.000000
386.400 1.993407
386.500 1.984615
386.600 1.981319
386.700 1.995604
386.800 2.015385
386.900 2.018681
387.000 2.003297
387.100 1.979121
387.200 1.950549
387.300 1.938462
387.400 1.949451
387.500 1.971429
387.600 1.980220
387.700 1.964835
387.800 1.947253
387.900 1.941758
388.000 1.958242
388.100 1.952747
388.200 1.926374
388.300 1.895604
388.400 1.870330
388.500 1.812088
388.600 1.714286
388.700 1.584615
388.800 1.474725
388.900 1.430769
389.000 1.493407
389.100 1.632967
389.200 1.761538
389.300 1.848352
389.400 1.887912
389.500 1.904396
389.600 1.916484
389.700 1.936264
389.800 1.947253
389.900 1.939560
390.000 1.937363
390.100 1.957143
390.200 1.978022
390.300 1.990110
390.400 1.991209
390.500 1.984615
390.600 1.965934
390.700 1.969231
390.800 2.004396
390.900 2.029670
391.000 2.028571
391.100 2.028571
391.200 2.023077
391.300 1.994505
391.400 1.976923
391.500 1.983516
391.600 1.991209
391.700 1.991209
391.800 1.982418
391.900 1.960440
392.000 1.950549
392.100 1.947253
392.200 1.934066
392.300 1.914286
392.400 1.912088
392.500 1.926374
392.600 1.919780
392.700 1.908791
392.800 1.882418
392.900 1.852747
393.000 1.815385
393.100 1.745055
393.200 1.585714
393.300 1.368132
393.400 1.368132
393.500 1.542857
393.600 1.670330
393.700 1.751648
393.800 1.812088
393.900 1.856044
394.000 1.898901
394.100 1.924176
394.200 1.930769
394.300 1.923077
394.400 1.918681
394.500 1.902198
394.600 1.903297
394.700 1.917582
394.800 1.919780
394.900 1.909890
395.000 1.903297
395.100 1.897802
395.200 1.894505
395.300 1.900000
395.400 1.907692
395.500 1.907692
395.600 1.892308
395.700 1.872527
395.800 1.865934
395.900 1.875824
396.000 1.879121
396.100 1.864835
396.200 1.827473
396.300 1.781319
396.400 1.728571
396.500 1.667033
396.600 1.563736
396.700 1.353846
396.800 1.134066
396.900 1.057033
397.000 1.109890
397.100 1.236264
397.200 1.398901
397.300 1.537363
397.400 1.639560
397.500 1.716484
397.600 1.775824
397.700 1.803297
397.800 1.816484
397.900 1.841758
398.000 1.854945
398.100 1.859341
398.200 1.849451
398.300 1.839560
398.400 1.851648
398.500 1.871429
398.600 1.850549
398.700 1.805495
398.800 1.860440
398.900 1.879121
399.000 1.891209
399.100 1.901099
399.200 1.908791
399.300 1.914286
399.400 1.905495
399.500 1.896703
399.600 1.873626
399.700 1.861538
399.800 1.862637
399.900 1.870330
400.000 1.867033
400.100 1.868132
400.200 1.871429
400.300 1.870330
400.400 1.871429
400.500 1.863736
400.600 1.860440
400.700 1.865934
400.800 1.880220
400.900 1.882418
401.000 1.875824
401.100 1.879121
401.200 1.878022
401.300 1.876923
401.400 1.884615
401.500 1.890110
401.600 1.896703
401.700 1.907692
401.800 1.917582
401.900 1.926374
402.000 1.925275
402.100 1.908791
402.200 1.892308
402.300 1.860440
402.400 1.814286
402.500 1.773626
402.600 1.775824
402.700 1.812088
402.800 1.850549
402.900 1.868132
403.000 1.878022
403.100 1.872527
403.200 1.870330
403.300 1.873626
403.400 1.878022
403.500 1.886813
403.600 1.896703
403.700 1.907692
403.800 1.916484
403.900 1.912088
404.000 1.912088
404.100 1.915385
404.200 1.907692
404.300 1.898901
404.400 1.887912
404.500 1.869231
404.600 1.854945
404.700 1.871429
404.800 1.894505
404.900 1.903297
405.000 1.901099
405.100 1.902198
405.200 1.905495
405.300 1.895604
405.400 1.891209
405.500 1.897802
405.600 1.902198
405.700 1.906593
405.800 1.914286
405.900 1.921978
406.000 1.914286
406.100 1.885714
406.200 1.875824
406.300 1.870330
406.400 1.825275
406.500 1.749451
406.600 1.784615
406.700 1.824176
406.800 1.827473
406.900 1.821978
407.000 1.813187
407.100 1.802198
407.200 1.800000
407.300 1.795604
407.400 1.808791
407.500 1.809890
407.600 1.786813
407.700 1.764835
407.800 1.759341
407.900 1.786813
408.000 1.818681
408.100 1.835165
408.200 1.835165
408.300 1.830769
408.400 1.813187
408.500 1.804396
408.600 1.798901
408.700 1.814286
408.800 1.831868
408.900 1.839560
409.000 1.830769
409.100 1.821978
409.200 1.818681
409.300 1.796703
409.400 1.775824
409.500 1.743956
409.600 1.709890
409.700 1.670330
409.800 1.601099
409.900 1.516484
410.000 1.409890
410.100 1.305495
410.200 1.262637
410.300 1.329670
410.400 1.473626
410.500 1.609890
410.600 1.684615
410.700 1.714286
410.800 1.734066
410.900 1.738462
411.000 1.741758
411.100 1.752747
411.200 1.770330
411.300 1.786813
411.400 1.808791
411.500 1.828571
411.600 1.836264
411.700 1.821978
411.800 1.795604
411.900 1.775824
412.000 1.774725
412.100 1.778022
412.200 1.772527
412.300 1.773626
412.400 1.786813
412.500 1.803297
412.600 1.807692
412.700 1.791209
412.800 1.765934
412.900 1.761538
413.000 1.768132
413.100 1.773626
413.200 1.769231
413.300 1.769231
413.400 1.780220
413.500 1.795604
413.600 1.804396
413.700 1.813187
413.800 1.824176
413.900 1.829670
414.000 1.830769
414.100 1.826374
414.200 1.804396
