# Wavelength (nm)   F_lamA (normalized erg/cm2/s/A)9.100 0.000005
9.400 0.000010
9.600 0.000017
9.800 0.000028
10.000 0.000044
10.200 0.000068
10.400 0.000104
10.600 0.000156
10.800 0.000229
11.000 0.000331
11.400 0.000665
11.800 0.001264
12.100 0.001983
12.500 0.003482
12.700 0.004544
12.800 0.005172
13.100 0.007525
13.200 0.008491
13.400 0.010742
13.700 0.015059
14.000 0.020760
14.300 0.028175
14.700 0.041377
15.100 0.059351
15.500 0.083298
15.900 0.114574
16.200 0.143735
16.600 0.191599
17.000 0.251179
17.300 0.304758
17.700 0.389484
18.000 0.464066
18.200 0.519503
18.600 0.645521
19.100 0.833405
19.400 0.963995
19.800 1.160309
20.200 1.384055
20.500 1.570224
21.000 1.920274
21.600 2.404629
22.000 2.770396
22.300 3.067581
22.700 3.493356
23.000 114.402057
23.400 126.532362
24.000 152.307472
24.600 187.883983
25.200 224.746392
25.700 205.457923
26.000 250.892985
26.400 296.185169
26.900 300.328618
27.400 305.472210
27.900 294.613516
28.400 309.329904
29.000 308.044006
29.600 292.184598
30.100 236.748107
30.800 268.609801
31.800 304.186312
32.800 304.757823
33.800 297.613945
34.800 291.327332
35.700 296.185169
36.600 301.757394
37.500 297.042435
38.500 281.611659
39.500 288.184026
40.500 288.898414
41.400 284.469210
42.200 277.325332
43.000 271.753108
44.100 271.467352
45.100 266.466638
46.000 258.179740
47.000 252.607515
48.000 249.321332
49.000 240.320046
50.000 238.605515
50.600 236.176597
51.200 251.464495
52.000 245.892270
53.000 240.034291
54.000 228.461209
55.000 222.174596
56.000 225.746535
57.000 221.745964
58.000 215.459351
59.000 212.030290
60.000 205.172167
61.000 197.885412
62.000 198.028290
63.000 192.313188
64.000 189.598514
65.000 184.312045
65.800 179.168453
66.500 178.596942
67.500 175.167881
68.500 168.595514
69.500 167.166738
70.500 160.308616
71.600 159.308473
72.600 156.165166
73.500 153.021860
74.500 149.021289
75.500 145.163595
76.500 140.620089
77.500 138.662666
78.500 134.962137
79.500 132.276039
80.500 129.832833
81.500 127.132447
82.500 124.460637
83.500 119.431347
84.500 118.916988
85.500 115.930847
86.500 113.930562
87.500 111.558794
88.500 109.029861
89.500 106.586655
90.500 103.743392
91.500 115.916560
92.500 141.063009
93.500 162.023146
94.500 187.312473
95.500 193.741963
96.500 207.458208
97.500 164.737820
98.500 199.171310
99.500 187.598228
100.500 191.170167
101.500 184.883555
102.500 148.878411
103.500 175.025004
104.500 177.311044
105.500 173.310473
106.500 166.309473
107.500 163.880554
108.500 154.307758
109.500 157.308187
110.500 152.450350
111.500 148.878411
112.500 143.449064
113.500 142.506072
114.500 138.634091
115.500 135.162166
116.500 131.918846
117.500 122.831833
118.500 125.360766
119.500 121.774539
120.500 117.145306
121.500 96.813831
122.500 111.858837
123.500 111.230176
124.500 109.015574
125.500 107.501072
126.500 105.172167
127.500 103.143306
128.500 101.000143
129.500 98.085441
130.500 96.042292
131.500 94.542077
132.500 92.156022
133.500 90.070010
134.500 88.555508
135.500 86.526647
136.500 84.354908
137.500 82.311759
138.500 80.925847
139.500 76.396628
140.500 73.296185
141.500 76.053722
142.500 74.139163
143.500 73.010430
144.200 71.767395
144.700 71.038720
145.500 69.781397
146.500 68.424061
147.500 67.123875
148.500 65.966567
149.500 64.552079
150.500 63.251893
151.200 62.366052
151.700 61.708816
152.500 60.708673
153.500 58.908415
154.500 56.408058
155.500 55.593656
156.500 55.550793
157.500 54.793542
158.500 53.836262
159.500 52.836119
160.500 51.421632
161.500 50.421489
162.500 49.492785
163.500 48.278325
164.500 46.420917
165.500 47.106730
166.500 46.306615
167.200 45.406487
167.700 45.477925
168.500 44.763538
169.500 43.934848
170.500 43.063295
171.500 41.963138
172.500 41.348764
173.500 40.891556
174.500 40.105729
175.500 39.362766
176.500 38.648378
177.500 38.034005
178.500 37.405344
179.500 36.748107
180.500 36.133733
181.500 35.476497
182.500 34.876411
183.500 34.290613
184.500 33.590513
185.500 32.961852
186.500 32.461780
187.500 31.961709
188.500 31.304472
189.500 30.747250
190.500 30.361480
191.500 29.775682
192.500 29.189884
193.500 28.846978
194.500 28.432633
195.500 27.832548
196.700 27.418203
197.600 27.061009
198.400 26.660952
199.500 26.118017
200.500 25.789398
201.500 25.403629
202.500 25.017860
203.500 24.574939
204.500 24.189170
205.500 21.003000
206.500 21.531647
207.400 23.117588
207.800 23.089013
208.500 22.874696
209.500 22.560366
210.500 22.231747
211.500 21.988856
212.500 21.645949
213.500 21.303043
214.500 20.960137
215.500 20.760109
216.500 20.288613
217.500 20.131447
218.500 19.688527
219.500 19.545649
220.500 19.245607
221.500 18.802686
222.500 18.674096
223.500 18.402629
224.500 18.131162
225.500 17.702529
226.500 17.616802
227.500 17.359623
228.500 17.102443
229.500 16.759537
230.500 16.430919
231.500 16.359480
232.500 16.002286
233.500 15.902272
234.500 15.673668
235.500 15.459351
236.500 15.230747
237.500 15.016431
238.500 14.602086
239.500 14.587798
240.500 14.387770
241.500 14.193456
242.500 14.007715
243.500 13.809116
244.500 13.621946
245.500 13.431919
246.500 13.251893
247.500 13.073296
248.500 12.897557
249.500 12.536077
250.500 12.531790
251.300 11.997428
251.800 12.306044
252.500 12.204601
253.500 12.050293
254.500 11.887412
255.500 11.738820
256.500 11.584512
257.500 11.435919
258.500 11.287327
259.500 11.134448
260.500 10.995857
261.500 10.850121
262.500 10.714388
263.500 10.575797
264.500 10.451493
265.500 10.317188
266.500 10.180026
267.500 10.048578
268.500 9.935705
269.500 9.792828
270.500 9.684241
271.500 9.561366
272.500 9.424203
273.500 9.182740
274.500 9.202743
275.500 9.089870
276.500 8.964138
277.500 8.874125
278.500 8.764109
279.500 8.634091
280.500 8.541220
281.500 8.449779
282.500 8.331190
283.500 8.235462
284.500 8.145449
285.500 8.046864
286.500 7.952565
287.500 7.858265
288.500 7.765395
289.500 7.672525
291.000 7.538220
293.000 7.362480
295.000 7.178168
297.000 7.023861
299.000 6.860980
301.000 6.686670
303.000 6.513788
305.000 6.349478
307.000 6.190884
309.000 6.036577
311.000 5.887984
313.000 5.742249
315.000 5.602229
317.000 5.467924
319.000 5.323618
321.000 5.170739
323.000 5.087870
325.000 4.967853
327.000 4.850693
329.000 4.739248
331.000 4.632090
332.200 4.407773
332.300 4.429204
332.400 4.406344
332.500 4.386341
332.600 4.354908
332.700 4.333476
332.800 4.316331
332.900 4.316331
333.000 4.320617
333.100 4.314902
333.200 4.299186
333.300 4.273468
333.400 4.257751
333.500 4.250607
333.600 4.230604
333.700 4.217745
333.800 4.206315
333.900 4.186312
334.000 4.166309
334.100 4.177740
334.200 4.194885
334.300 4.264895
334.400 4.302043
334.500 4.332047
334.600 4.359194
334.700 4.369196
334.800 4.323475
334.900 4.250607
335.000 4.106301
335.100 4.096299
335.200 4.122017
335.300 4.130590
335.400 4.123446
335.500 4.106301
335.600 4.119160
335.700 4.142020
335.800 4.159166
335.900 4.164881
336.000 4.173453
336.100 4.170596
336.200 4.167738
336.300 4.139163
336.400 4.114874
336.500 4.074868
336.600 4.056294
336.700 4.040577
336.800 4.040577
336.900 4.049150
337.000 4.079154
337.100 4.079154
337.200 4.044864
337.300 4.039148
337.400 4.047721
337.500 4.072010
337.600 4.076297
337.700 4.040577
337.800 4.032005
337.900 4.036291
338.000 4.070582
338.100 4.096299
338.200 4.102015
338.300 4.096299
338.400 4.080583
338.500 4.102015
338.600 4.127733
338.700 4.146307
338.800 4.144878
338.900 4.103443
339.000 4.086298
339.100 4.077725
339.200 4.099157
339.300 4.116302
339.400 4.162023
339.500 4.157737
339.600 4.119160
339.700 4.063438
339.800 4.020574
339.900 3.941992
340.000 3.923418
340.100 3.941992
340.200 3.934848
340.300 3.923418
340.400 3.934848
340.500 3.939134
340.600 3.926275
340.700 3.929133
340.800 3.940563
340.900 3.951993
341.000 3.953422
341.100 3.903415
341.200 3.900557
341.300 3.924846
341.400 3.957708
341.500 3.977711
341.600 3.974854
341.700 3.969138
341.800 3.961995
341.900 3.959137
342.000 3.956279
342.100 3.963423
342.200 3.966281
342.300 3.971996
342.400 3.966281
342.500 3.953422
342.600 3.954851
342.700 3.957708
342.800 3.974854
342.900 3.966281
343.000 3.936277
343.100 3.931990
343.200 3.933419
343.300 3.940563
343.400 3.944849
343.500 3.956279
343.600 3.956279
343.700 3.951993
343.800 3.930562
343.900 3.910559
344.000 3.860552
344.100 3.846264
344.200 3.847693
344.300 3.877697
344.400 3.894842
344.500 3.860552
344.600 3.846264
344.700 3.839120
344.800 3.863409
344.900 3.884841
345.000 3.807687
345.100 3.766252
345.200 3.749107
345.300 3.751965
345.400 3.763395
345.500 3.760537
345.600 3.757680
345.700 3.753393
345.800 3.747678
345.900 3.741963
346.000 3.737677
346.100 3.736248
346.200 3.756251
346.300 3.853408
346.400 3.804829
346.500 3.797685
346.600 3.810544
346.700 3.803400
346.800 3.784826
346.900 3.783398
347.000 3.791970
347.100 3.739106
347.200 3.730533
347.300 3.773396
347.400 3.773396
347.500 3.756251
347.600 3.723389
347.700 3.653379
347.800 3.589084
347.900 3.573368
348.000 3.609087
348.100 3.657665
348.200 3.637663
348.300 3.591942
348.400 3.601943
348.500 3.669096
348.600 3.694814
348.700 3.713388
348.800 3.757680
348.900 3.770539
349.000 3.741963
349.100 3.734819
349.200 3.764824
349.300 3.763395
349.400 3.759108
349.500 3.743392
349.600 3.707673
349.700 3.710530
349.800 3.724818
349.900 3.726247
350.000 3.694814
350.100 3.631947
350.200 3.631947
350.300 3.647664
350.400 3.621946
350.500 3.579083
350.600 3.566224
350.700 3.583369
350.800 3.603372
350.900 3.601943
351.000 3.599086
351.100 3.600514
351.200 3.593370
351.300 3.579083
351.400 3.591942
351.500 3.593370
351.600 3.601943
351.700 3.576225
351.800 3.566224
351.900 3.574796
352.000 3.580512
352.100 3.577654
352.200 3.566224
352.300 3.561937
352.400 3.590513
352.500 3.557651
352.600 3.553365
352.700 3.556222
352.800 3.566224
352.900 3.576225
353.000 3.584798
353.100 3.601943
353.200 3.616231
353.300 3.589084
353.400 3.546221
353.500 3.536219
353.600 3.541935
353.700 3.513359
353.800 3.506215
353.900 3.504786
354.000 3.527647
354.100 3.547650
354.200 3.543363
354.300 3.529076
354.400 3.527647
354.500 3.530504
354.600 3.519074
354.700 3.531933
354.800 3.551936
354.900 3.551936
355.000 3.529076
355.100 3.513359
355.200 3.527647
355.300 3.549078
355.400 3.547650
355.500 3.524789
355.600 3.499071
355.700 3.503358
355.800 3.513359
355.900 3.511930
356.000 3.501929
356.100 3.511930
356.200 3.524789
356.300 3.509073
356.400 3.490499
356.500 3.513359
356.600 3.536219
356.700 3.506215
356.800 3.506215
356.900 3.484784
357.000 3.441920
357.100 3.374768
357.200 3.377625
357.300 3.384769
357.400 3.373339
357.500 3.370481
357.600 3.384769
357.700 3.386198
357.800 3.374768
357.900 3.359051
358.000 3.367624
358.100 3.381912
358.200 3.377625
358.300 3.370481
358.400 3.369053
358.500 3.371910
358.600 3.379054
358.700 3.374768
358.800 3.357623
358.900 3.344764
359.000 3.361909
359.100 3.366195
359.200 3.346192
359.300 3.341906
359.400 3.344764
359.500 3.336191
359.600 3.323332
359.700 3.326189
359.800 3.331905
359.900 3.346192
360.000 3.374768
360.100 3.369053
360.200 3.370481
360.300 3.351907
360.400 3.336191
360.500 3.333333
360.600 3.331905
360.700 3.330476
360.800 3.341906
360.900 3.353336
361.000 3.347621
361.100 3.309044
361.200 3.311902
361.300 3.309044
361.400 3.290470
361.500 3.283326
361.600 3.293328
361.700 3.304758
361.800 3.317617
361.900 3.326189
362.000 3.296185
362.100 3.287613
362.200 3.316188
362.300 3.316188
362.400 3.297614
362.500 3.291899
362.600 3.306187
362.700 3.309044
362.800 3.286184
362.900 3.271896
363.000 3.289041
363.100 3.309044
363.200 3.307615
363.300 3.299043
363.400 3.317617
363.500 3.303329
363.600 3.237605
363.700 3.211887
363.800 3.210459
363.900 3.206172
364.000 3.210459
364.100 3.231890
364.200 3.244749
364.300 3.221889
364.400 3.184741
364.500 3.174739
364.600 3.181883
364.700 3.189027
364.800 3.196171
364.900 3.201886
365.000 3.197600
365.100 3.181883
365.200 3.173310
365.300 3.164738
365.400 3.156165
365.500 3.166167
365.600 3.169024
365.700 3.159023
365.800 3.156165
365.900 3.151879
366.000 3.141877
366.100 3.136162
366.200 3.133305
366.300 3.146164
366.400 3.150450
366.500 3.143306
366.600 3.137591
366.700 3.121875
366.800 3.114731
366.900 3.120446
367.000 3.129018
367.100 3.127590
367.200 3.114731
367.300 3.101872
367.400 3.096157
367.500 3.094728
367.600 3.111873
367.700 3.096157
367.800 3.089013
367.900 3.087584
368.000 3.086155
368.100 3.090441
368.200 3.091870
368.300 3.086155
368.400 3.074725
368.500 3.074725
368.600 3.077583
368.700 3.071867
368.800 3.074725
368.900 3.083298
369.000 3.073296
369.100 3.060437
369.200 3.070439
369.300 3.079011
369.400 3.053293
369.500 3.037577
369.600 3.033290
369.700 3.023289
369.800 3.017574
369.900 3.027575
370.000 3.050436
370.100 3.034719
370.200 2.994714
370.300 2.964709
370.400 2.950421
370.500 2.954708
370.600 2.968996
370.700 2.986141
370.800 2.983283
370.900 2.974711
371.000 2.953279
371.100 2.927561
371.200 2.908987
371.300 2.908987
371.400 2.938991
371.500 2.977568
371.600 2.987570
371.700 2.971853
371.800 2.970424
371.900 2.923275
372.000 2.868981
372.100 2.844692
372.200 2.850407
372.300 2.878983
372.400 2.897557
372.500 2.893270
372.600 2.894699
372.700 2.920417
372.800 2.941849
372.900 2.946135
373.000 2.943278
373.100 2.907558
373.200 2.868981
373.300 2.814688
373.400 2.773253
373.500 2.767538
373.600 2.794685
373.700 2.834691
373.800 2.886127
373.900 2.931847
374.000 2.958994
374.100 2.973282
374.200 2.960423
374.300 2.928990
374.400 2.920417
374.500 2.910416
374.600 2.880411
374.700 2.828976
374.800 2.760394
374.900 2.696099
375.000 2.680383
375.100 2.710387
375.200 2.748964
375.300 2.776111
375.400 2.800400
375.500 2.834691
375.600 2.851836
375.700 2.844692
375.800 2.836119
375.900 2.826118
376.000 2.814688
376.100 2.810401
376.200 2.866124
376.300 2.888984
376.400 2.870410
376.500 2.833262
376.600 2.791827
376.700 2.744678
376.800 2.688956
376.900 2.624661
377.000 2.558937
377.100 2.551793
377.200 2.604658
377.300 2.674668
377.400 2.733248
377.500 2.776111
377.600 2.798971
377.700 2.814688
377.800 2.817545
377.900 2.813259
378.000 2.814688
378.100 2.820403
378.200 2.834691
378.300 2.828976
378.400 2.818974
378.500 2.841835
378.600 2.851836
378.700 2.840406
378.800 2.823260
378.900 2.801829
379.000 2.776111
379.100 2.754679
379.200 2.743249
379.300 2.733248
379.400 2.688956
379.500 2.633233
379.600 2.544649
379.700 2.463209
379.800 2.440349
379.900 2.488927
380.000 2.576082
380.100 2.658951
380.200 2.693242
380.300 2.720389
380.400 2.740391
380.500 2.771825
380.600 2.760394
380.700 2.764681
380.800 2.777540
380.900 2.781826
381.000 2.787541
381.100 2.790399
381.200 2.778968
381.300 2.776111
381.400 2.781826
381.500 2.777540
381.600 2.763252
381.700 2.766109
381.800 2.756108
381.900 2.751822
382.000 2.738963
382.100 2.730390
382.200 2.740391
382.300 2.748964
382.400 2.746107
382.500 2.741820
382.600 2.721817
382.700 2.727533
382.800 2.720389
382.900 2.687527
383.000 2.644664
383.100 2.598943
383.200 2.543220
383.300 2.463209
383.400 2.374625
383.500 2.308901
383.600 2.324618
383.700 2.404629
383.800 2.491785
383.900 2.556079
384.000 2.606087
384.100 2.630376
384.200 2.656094
384.300 2.687527
384.400 2.718960
384.500 2.741820
384.600 2.724675
384.700 2.718960
384.800 2.711816
384.900 2.726104
385.000 2.724675
385.100 2.733248
385.200 2.740391
385.300 2.731819
385.400 2.718960
385.500 2.706101
385.600 2.694671
385.700 2.676097
385.800 2.671810
385.900 2.701815
386.000 2.716102
386.100 2.730390
386.200 2.708958
386.300 2.680383
386.400 2.657523
386.500 2.647521
386.600 2.653236
386.700 2.670381
386.800 2.681812
386.900 2.671810
387.000 2.654665
387.100 2.646092
387.200 2.643235
387.300 2.647521
387.400 2.651807
387.500 2.650379
387.600 2.640377
387.700 2.628947
387.800 2.633233
387.900 2.636091
388.000 2.640377
388.100 2.617517
388.200 2.591799
388.300 2.564652
388.400 2.538934
388.500 2.487498
388.600 2.398914
388.700 2.288898
388.800 2.181740
388.900 2.150307
389.000 2.221746
389.100 2.356051
389.200 2.444635
389.300 2.517503
389.400 2.550364
389.500 2.576082
389.600 2.598943
389.700 2.608944
389.800 2.617517
389.900 2.621803
390.000 2.628947
390.100 2.636091
390.200 2.637520
390.300 2.644664
390.400 2.647521
390.500 2.647521
390.600 2.637520
390.700 2.640377
390.800 2.660380
390.900 2.657523
391.000 2.634662
391.100 2.637520
391.200 2.650379
391.300 2.643235
391.400 2.643235
391.500 2.651807
391.600 2.648950
391.700 2.643235
391.800 2.631805
391.900 2.613230
392.000 2.603229
392.100 2.596085
392.200 2.576082
392.300 2.543220
392.400 2.541792
392.500 2.566081
392.600 2.580369
392.700 2.591799
392.800 2.594656
392.900 2.593228
393.000 2.590370
393.100 2.551793
393.200 2.403200
393.300 2.170310
393.400 2.200314
393.500 2.431776
393.600 2.548936
393.700 2.590370
393.800 2.593228
393.900 2.583226
394.000 2.583226
394.100 2.588941
394.200 2.588941
394.300 2.573225
394.400 2.560366
394.500 2.531790
394.600 2.518931
394.700 2.523218
394.800 2.526075
394.900 2.528933
395.000 2.527504
395.100 2.517503
395.200 2.507501
395.300 2.504644
395.400 2.498928
395.500 2.488927
395.600 2.476068
395.700 2.467495
395.800 2.460351
395.900 2.463209
396.000 2.464638
396.100 2.458923
396.200 2.446064
396.300 2.417488
396.400 2.381769
396.500 2.348907
396.600 2.270324
396.700 2.076011
396.800 1.861695
396.900 1.817402
397.000 1.897414
397.100 2.014574
397.200 2.130304
397.300 2.234605
397.400 2.291756
397.500 2.331762
397.600 2.366052
397.700 2.373196
397.800 2.374625
397.900 2.393199
398.000 2.401772
398.100 2.414631
398.200 2.420346
398.300 2.410344
398.400 2.404629
398.500 2.403200
398.600 2.363195
398.700 2.304615
398.800 2.388913
398.900 2.414631
399.000 2.424632
399.100 2.430347
399.200 2.430347
399.300 2.426061
399.400 2.420346
399.500 2.421775
399.600 2.414631
399.700 2.411773
399.800 2.413202
399.900 2.414631
400.000 2.396057
400.100 2.388913
400.200 2.393199
400.300 2.391770
400.400 2.390341
400.500 2.396057
400.600 2.396057
400.700 2.391770
400.800 2.394628
400.900 2.391770
401.000 2.386055
401.100 2.390341
401.200 2.396057
401.300 2.394628
401.400 2.394628
401.500 2.388913
401.600 2.381769
401.700 2.387484
401.800 2.397485
401.900 2.400343
402.000 2.393199
402.100 2.380340
402.200 2.378911
402.300 2.360337
402.400 2.320331
402.500 2.280326
402.600 2.267467
402.700 2.297471
402.800 2.337477
402.900 2.364624
403.000 2.380340
403.100 2.381769
403.200 2.378911
403.300 2.376054
403.400 2.376054
403.500 2.381769
403.600 2.383198
403.700 2.376054
403.800 2.368910
403.900 2.360337
404.000 2.367481
404.100 2.383198
404.200 2.380340
404.300 2.373196
404.400 2.370339
404.500 2.366052
404.600 2.361766
404.700 2.366052
404.800 2.371767
404.900 2.371767
405.000 2.361766
405.100 2.361766
405.200 2.374625
405.300 2.370339
405.400 2.371767
405.500 2.374625
405.600 2.368910
405.700 2.366052
405.800 2.370339
405.900 2.367481
406.000 2.364624
406.100 2.351765
406.200 2.343192
406.300 2.344621
406.400 2.296042
406.500 2.181740
406.600 2.221746
406.700 2.278897
406.800 2.283183
406.900 2.274611
407.000 2.266038
407.100 2.270324
407.200 2.280326
407.300 2.268896
407.400 2.267467
407.500 2.266038
407.600 2.258894
407.700 2.258894
407.800 2.266038
407.900 2.273182
408.000 2.276039
408.100 2.271753
408.200 2.266038
408.300 2.264609
408.400 2.251750
408.500 2.250321
408.600 2.247464
408.700 2.257465
408.800 2.266038
408.900 2.261752
409.000 2.243178
409.100 2.230319
409.200 2.226032
409.300 2.210316
409.400 2.187455
409.500 2.148878
409.600 2.117445
409.700 2.084584
409.800 2.024575
409.900 1.941706
410.000 1.848836
410.100 1.775968
410.200 1.764538
410.300 1.835977
410.400 1.958851
410.500 2.053150
410.600 2.103158
410.700 2.127447
410.800 2.150307
410.900 2.163166
411.000 2.173168
411.100 2.184598
411.200 2.190313
411.300 2.193170
411.400 2.208887
411.500 2.227461
411.600 2.236034
411.700 2.223175
411.800 2.201743
411.900 2.196028
412.000 2.203172
412.100 2.204601
412.200 2.203172
412.300 2.204601
412.400 2.204601
412.500 2.207458
412.600 2.208887
412.700 2.204601
412.800 2.193170
412.900 2.196028
413.000 2.201743
413.100 2.206029
413.200 2.200314
413.300 2.193170
