# Wavelength (nm)   F_lamA (normalized erg/cm2/s/A)9.100 0.000954
9.400 0.001068
9.600 0.001146
9.800 0.001224
10.000 0.001303
10.200 0.001382
10.400 0.001462
10.600 0.001542
10.800 0.001622
11.000 0.001703
11.400 0.001868
11.800 0.002038
12.100 0.002174
12.500 0.002370
12.700 0.002479
12.800 0.002536
13.100 0.002724
13.200 0.002792
13.400 0.002940
13.700 0.003195
14.000 0.003497
14.300 0.003859
14.700 0.004459
15.100 0.005222
15.500 0.006194
15.900 0.007422
16.200 0.008540
16.600 0.010335
17.000 0.012532
17.300 0.014482
17.700 0.017532
18.000 0.020189
18.200 0.022157
18.600 0.026583
19.100 0.033129
19.400 0.037658
19.800 0.044393
20.200 0.052057
20.500 0.058394
21.000 0.070206
21.600 0.086530
22.000 0.098739
22.300 0.108626
22.700 0.122827
23.000 3.944924
23.400 4.343066
24.000 5.603849
24.600 7.664234
25.200 9.366291
25.700 7.242867
26.000 10.348374
26.400 13.065693
26.900 13.297943
27.400 13.500332
27.900 12.979429
28.400 13.656271
29.000 13.589914
29.600 12.491705
30.100 8.656271
30.800 10.759788
31.800 13.394161
32.800 13.427339
33.800 13.161911
34.800 12.919708
35.700 13.105508
36.600 13.258129
37.500 13.035833
38.500 12.339084
39.500 12.654280
40.500 12.670869
41.400 12.501659
42.200 12.186463
43.000 11.980756
44.100 11.994028
45.100 11.791639
46.000 11.469808
47.000 11.267419
48.000 11.167883
49.000 10.812873
50.000 10.783013
50.600 11.602522
51.200 13.745853
52.000 13.480425
53.000 13.238222
54.000 12.541473
55.000 12.392170
56.000 12.720637
57.000 12.554745
58.000 12.163238
59.000 12.106835
60.000 11.751825
61.000 11.420040
62.000 11.536165
63.000 11.290644
64.000 11.171201
65.000 10.919044
65.800 10.646981
66.500 10.663570
67.500 10.550763
68.500 10.169210
69.500 10.189117
70.500 9.794293
71.600 9.850697
72.600 9.708029
73.500 9.575315
74.500 9.369608
75.500 9.200398
76.500 8.971466
77.500 8.891838
78.500 8.735899
79.500 8.603185
80.500 8.490378
81.500 8.370936
82.500 8.261447
83.500 7.916390
84.500 7.986065
85.500 7.843397
86.500 7.763769
87.500 7.650962
88.500 7.528202
89.500 7.408759
90.500 7.246184
91.500 7.737226
92.500 13.477107
93.500 18.881885
94.500 27.793630
95.500 31.781685
96.500 37.060385
97.500 22.418713
98.500 39.051095
99.500 38.088918
100.500 39.382880
101.500 35.401460
102.500 20.497678
103.500 32.481752
104.500 37.624419
105.500 37.491705
106.500 35.500995
107.500 35.899137
108.500 33.443928
109.500 34.870604
110.500 33.609821
111.500 33.019244
112.500 31.433311
113.500 31.738553
114.500 30.567352
115.500 30.252157
116.500 29.717983
117.500 26.655607
118.500 27.889847
119.500 26.001991
120.500 23.032515
121.500 14.001327
122.500 21.997346
123.500 24.406105
124.500 24.568679
125.500 24.469144
126.500 23.898474
127.500 23.895156
128.500 23.560053
129.500 22.611148
130.500 22.206370
131.500 22.319177
132.500 21.721964
133.500 21.104844
134.500 21.098208
135.500 20.729927
136.500 20.235567
137.500 19.873922
138.500 19.591904
139.500 18.596549
140.500 18.221632
141.500 18.523557
142.500 18.151958
143.500 17.873258
144.200 17.704048
144.700 17.541473
145.500 17.269409
146.500 16.930989
147.500 16.645654
148.500 16.366954
149.500 16.061712
150.500 15.743198
151.200 15.507631
151.700 15.421367
152.500 15.155939
153.500 14.664897
154.500 14.346384
155.500 14.047777
156.500 13.974784
157.500 13.861977
158.500 13.692767
159.500 13.516921
160.500 13.108825
161.500 12.896483
162.500 12.680823
163.500 12.458527
164.500 12.063703
165.500 12.100199
166.500 12.033842
167.200 11.728600
167.700 11.814864
168.500 11.688786
169.500 11.463172
170.500 11.240876
171.500 11.001991
172.500 10.839416
173.500 10.779695
174.500 10.570670
175.500 10.457863
176.500 10.169210
177.500 10.122760
178.500 9.976775
179.500 9.863968
180.500 9.727936
181.500 9.552090
182.500 9.419376
183.500 9.276709
184.500 9.047777
185.500 8.858660
186.500 8.769078
187.500 8.725946
188.500 8.503650
189.500 8.321168
190.500 8.317850
191.500 8.118779
192.500 7.989383
193.500 7.936297
194.500 7.889847
195.500 7.677505
196.700 7.650962
197.600 7.584605
198.400 7.455209
199.500 7.279363
200.500 7.252820
201.500 7.166556
202.500 7.096881
203.500 6.977439
204.500 6.884539
205.500 6.327140
206.500 6.403451
207.400 6.658925
207.800 6.585932
208.500 6.556072
209.500 6.443265
210.500 6.396815
211.500 6.337094
212.500 6.267419
213.500 6.167883
214.500 6.091573
215.500 6.035169
216.500 5.919044
217.500 5.862641
218.500 5.779695
219.500 5.749834
220.500 5.656934
221.500 5.554081
222.500 5.491042
223.500 5.461181
224.500 5.381553
225.500 5.278699
226.500 5.238885
227.500 5.189117
228.500 5.136032
229.500 5.023225
230.500 4.976775
231.500 4.936961
232.500 4.664897
233.500 4.807565
234.500 4.711347
235.500 4.698076
236.500 4.611812
237.500 4.578633
238.500 4.462508
239.500 4.465826
240.500 4.409423
241.500 4.362973
242.500 4.336430
243.500 4.273391
244.500 4.236894
245.500 4.193762
246.500 4.134041
247.500 4.084273
248.500 4.051095
249.500 3.944924
250.500 3.971466
251.300 3.861977
251.800 3.901792
252.500 3.855342
253.500 3.805574
254.500 3.769078
255.500 3.755806
256.500 3.709356
257.500 3.686131
258.500 3.646317
259.500 3.603185
260.500 3.556735
261.500 3.516921
262.500 3.490378
263.500 3.457200
264.500 3.463835
265.500 3.427339
266.500 3.374253
267.500 3.351029
268.500 3.331121
269.500 3.275050
270.500 3.255806
271.500 3.212342
272.500 3.166888
273.500 3.139350
274.500 3.087259
275.500 3.064698
276.500 3.042468
277.500 3.041141
278.500 3.004977
279.500 2.906768
280.500 2.909754
281.500 2.932648
282.500 2.893497
283.500 2.864964
284.500 2.841407
285.500 2.807565
286.500 2.794293
287.500 2.767419
288.500 2.745853
289.500 2.721632
291.000 2.694094
293.000 2.639018
295.000 2.581951
297.000 2.548772
299.000 2.504977
301.000 2.457863
303.000 2.409423
305.000 2.361977
307.000 2.314200
309.000 2.270405
311.000 2.225614
313.000 2.181818
315.000 2.142004
317.000 2.104512
319.000 2.050100
321.000 2.021566
323.000 1.986065
325.000 1.955873
327.000 1.926344
329.000 1.892833
331.000 1.862641
332.200 1.853351
332.300 1.869940
332.400 1.860650
332.500 1.852687
332.600 1.836430
332.700 1.818182
332.800 1.818514
332.900 1.824818
333.000 1.831785
333.100 1.832449
333.200 1.823159
333.300 1.807896
333.400 1.796948
333.500 1.790975
333.600 1.781022
333.700 1.763769
333.800 1.750498
333.900 1.753152
334.000 1.748839
334.100 1.761778
334.200 1.767419
334.300 1.795952
334.400 1.821500
334.500 1.834439
334.600 1.850365
334.700 1.852024
334.800 1.825481
334.900 1.773723
335.000 1.705043
335.100 1.707697
335.200 1.738222
335.300 1.755474
335.400 1.753484
335.500 1.734572
335.600 1.730259
335.700 1.734904
335.800 1.733908
335.900 1.727273
336.000 1.731254
336.100 1.725946
336.200 1.738222
336.300 1.734904
336.400 1.732250
336.500 1.717651
336.600 1.701393
336.700 1.688786
336.800 1.678169
336.900 1.682150
337.000 1.704048
337.100 1.709356
337.200 1.692104
337.300 1.689781
337.400 1.700066
337.500 1.732913
337.600 1.746516
337.700 1.716656
337.800 1.695090
337.900 1.683809
338.000 1.699071
338.100 1.722296
338.200 1.745189
338.300 1.757797
338.400 1.753816
338.500 1.752820
338.600 1.750166
338.700 1.744526
338.800 1.742535
338.900 1.739549
339.000 1.742535
339.100 1.747512
339.200 1.748839
339.300 1.746848
339.400 1.760119
339.500 1.767419
339.600 1.770073
339.700 1.755474
339.800 1.741208
339.900 1.706702
340.000 1.681486
340.100 1.692435
340.200 1.677837
340.300 1.673192
340.400 1.673524
340.500 1.677837
340.600 1.666888
340.700 1.667551
340.800 1.679827
340.900 1.689449
341.000 1.693431
341.100 1.669874
341.200 1.675514
341.300 1.696085
341.400 1.716987
341.500 1.721964
341.600 1.722628
341.700 1.722628
341.800 1.727605
341.900 1.734904
342.000 1.733908
342.100 1.731918
342.200 1.721632
342.300 1.715328
342.400 1.712674
342.500 1.709356
342.600 1.717983
342.700 1.725282
342.800 1.732250
342.900 1.735899
343.000 1.718315
343.100 1.714333
343.200 1.713338
343.300 1.720969
343.400 1.725614
343.500 1.725282
343.600 1.728268
343.700 1.728268
343.800 1.730922
343.900 1.720637
344.000 1.695090
344.100 1.674187
344.200 1.666888
344.300 1.674851
344.400 1.682150
344.500 1.680491
344.600 1.688122
344.700 1.696417
344.800 1.716656
344.900 1.729263
345.000 1.690113
345.100 1.647976
345.200 1.628401
345.300 1.621765
345.400 1.631719
345.500 1.634705
345.600 1.635036
345.700 1.634705
345.800 1.628401
345.900 1.627074
346.000 1.622760
346.100 1.621102
346.200 1.628401
346.300 1.658593
346.400 1.644990
346.500 1.643995
346.600 1.647313
346.700 1.645322
346.800 1.643995
346.900 1.643663
347.000 1.653948
347.100 1.648640
347.200 1.642999
347.300 1.639018
347.400 1.638686
347.500 1.633709
347.600 1.629064
347.700 1.611148
347.800 1.592568
347.900 1.580956
348.000 1.592568
348.100 1.608825
348.200 1.599204
348.300 1.581951
348.400 1.580956
348.500 1.608494
348.600 1.634705
348.700 1.648308
348.800 1.660916
348.900 1.654944
349.000 1.641672
349.100 1.638686
349.200 1.651958
349.300 1.656934
349.400 1.647976
349.500 1.632382
349.600 1.623424
349.700 1.631055
349.800 1.640345
349.900 1.637691
350.000 1.610153
350.100 1.595222
350.200 1.603849
350.300 1.609489
350.400 1.598208
350.500 1.579960
350.600 1.570670
350.700 1.572661
350.800 1.585269
350.900 1.590909
351.000 1.595554
351.100 1.597213
351.200 1.592568
351.300 1.578633
351.400 1.574320
351.500 1.583942
351.600 1.595886
351.700 1.598872
351.800 1.601526
351.900 1.601194
352.000 1.600863
352.100 1.594891
352.200 1.587591
352.300 1.588918
352.400 1.595886
352.500 1.594891
352.600 1.595554
352.700 1.592236
352.800 1.593895
352.900 1.601526
353.000 1.610816
353.100 1.619111
353.200 1.628401
353.300 1.622429
353.400 1.604512
353.500 1.597213
353.600 1.597545
353.700 1.591573
353.800 1.593563
353.900 1.595554
354.000 1.602853
354.100 1.606171
354.200 1.606503
354.300 1.605508
354.400 1.609157
354.500 1.612475
354.600 1.615793
354.700 1.622760
354.800 1.627405
354.900 1.621765
355.000 1.615461
355.100 1.616788
355.200 1.622429
355.300 1.624088
355.400 1.613139
355.500 1.605508
355.600 1.605176
355.700 1.612143
355.800 1.613802
355.900 1.606835
356.000 1.598540
356.100 1.603849
356.200 1.610153
356.300 1.606503
356.400 1.594227
356.500 1.585601
356.600 1.585601
356.700 1.582614
356.800 1.588918
356.900 1.583942
357.000 1.566025
357.100 1.529197
357.200 1.510949
357.300 1.509622
357.400 1.509954
357.500 1.514267
357.600 1.524552
357.700 1.525216
357.800 1.520571
357.900 1.515926
358.000 1.516921
358.100 1.518912
358.200 1.513935
358.300 1.510617
358.400 1.511944
358.500 1.506636
358.600 1.498009
358.700 1.492701
358.800 1.486065
358.900 1.491042
359.000 1.502654
359.100 1.505640
359.200 1.502654
359.300 1.504645
359.400 1.507299
359.500 1.510285
359.600 1.511612
359.700 1.515926
359.800 1.523557
359.900 1.527870
360.000 1.532847
360.100 1.528534
360.200 1.528865
360.300 1.521898
360.400 1.515594
360.500 1.514267
360.600 1.516257
360.700 1.518912
360.800 1.524552
360.900 1.530856
361.000 1.534174
361.100 1.526875
361.200 1.523225
361.300 1.518912
361.400 1.515594
361.500 1.515262
361.600 1.520902
361.700 1.527538
361.800 1.534174
361.900 1.539151
362.000 1.532847
362.100 1.532183
362.200 1.547445
362.300 1.553086
362.400 1.547777
362.500 1.549436
362.600 1.557731
362.700 1.567352
362.800 1.566025
362.900 1.554081
363.000 1.545455
363.100 1.539814
363.200 1.538487
363.300 1.546118
363.400 1.563371
363.500 1.561380
363.600 1.529861
363.700 1.514599
363.800 1.517916
363.900 1.523225
364.000 1.524552
364.100 1.525216
364.200 1.525216
364.300 1.518580
364.400 1.509290
364.500 1.508626
364.600 1.502986
364.700 1.504645
364.800 1.507963
364.900 1.507299
365.000 1.507963
365.100 1.506636
365.200 1.507299
365.300 1.508295
365.400 1.508626
365.500 1.509622
365.600 1.514599
365.700 1.512608
365.800 1.510285
365.900 1.506636
366.000 1.496350
366.100 1.495023
366.200 1.491705
366.300 1.497014
366.400 1.500332
366.500 1.496682
366.600 1.494691
366.700 1.488388
366.800 1.485733
366.900 1.491705
367.000 1.497014
367.100 1.496682
367.200 1.496350
367.300 1.489715
367.400 1.484074
367.500 1.473125
367.600 1.468812
367.700 1.466158
367.800 1.463835
367.900 1.466490
368.000 1.470471
368.100 1.478102
368.200 1.475116
368.300 1.471466
368.400 1.471798
368.500 1.466158
368.600 1.454214
368.700 1.452555
368.800 1.472794
368.900 1.500332
369.000 1.498673
369.100 1.471798
369.200 1.474121
369.300 1.496350
369.400 1.520239
369.500 1.516257
369.600 1.477770
369.700 1.459190
369.800 1.464499
369.900 1.510949
370.000 1.562376
370.100 1.568016
370.200 1.523225
370.300 1.436629
370.400 1.394161
370.500 1.393165
370.600 1.452223
370.700 1.511281
370.800 1.560717
370.900 1.537823
371.000 1.473457
371.100 1.405773
371.200 1.368613
371.300 1.392502
371.400 1.461845
371.500 1.571666
371.600 1.635368
371.700 1.671201
371.800 1.660252
371.900 1.588255
372.000 1.457532
372.100 1.380226
372.200 1.333112
372.300 1.371267
372.400 1.461181
372.500 1.578633
372.600 1.636695
372.700 1.701725
372.800 1.727936
372.900 1.734904
373.000 1.711679
373.100 1.637359
373.200 1.507299
373.300 1.399137
373.400 1.304247
373.500 1.288653
373.600 1.348706
373.700 1.475780
373.800 1.581287
373.900 1.710683
374.000 1.779363
374.100 1.826808
374.200 1.838089
374.300 1.824486
374.400 1.795620
374.500 1.748507
374.600 1.667883
374.700 1.561048
374.800 1.445255
374.900 1.307565
375.000 1.262774
375.100 1.287326
375.200 1.385866
375.300 1.500664
375.400 1.630392
375.500 1.705707
375.600 1.779031
375.700 1.799602
375.800 1.802588
375.900 1.793298
376.000 1.783676
376.100 1.781685
376.200 1.809555
376.300 1.811878
376.400 1.790644
376.500 1.739549
376.600 1.668215
376.700 1.592236
376.800 1.470471
376.900 1.343066
377.000 1.246848
377.100 1.210352
377.200 1.285335
377.300 1.416722
377.400 1.529197
377.500 1.636364
377.600 1.718646
377.700 1.782017
377.800 1.846384
377.900 1.883212
378.000 1.921699
378.100 1.941274
378.200 1.956204
378.300 1.954545
378.400 1.952887
378.500 1.954877
378.600 1.946251
378.700 1.930989
378.800 1.915063
378.900 1.892502
379.000 1.859987
379.100 1.821500
379.200 1.763106
379.300 1.697412
379.400 1.613470
379.500 1.481420
379.600 1.357332
379.700 1.229263
379.800 1.169874
379.900 1.211679
380.000 1.342402
380.100 1.472130
380.200 1.608825
380.300 1.692104
380.400 1.766092
380.500 1.822827
380.600 1.853019
380.700 1.886530
380.800 1.913736
380.900 1.945919
381.000 1.972130
381.100 1.986397
381.200 1.976775
381.300 1.957863
381.400 1.940942
381.500 1.939947
381.600 1.939615
381.700 1.936297
381.800 1.921699
381.900 1.894492
382.000 1.873922
382.100 1.871267
382.200 1.894161
382.300 1.900464
382.400 1.884871
382.500 1.859323
382.600 1.824154
382.700 1.801593
382.800 1.764764
382.900 1.713006
383.000 1.656271
383.100 1.571334
383.200 1.479429
383.300 1.352024
383.400 1.200730
383.500 1.134041
383.600 1.127405
383.700 1.209025
383.800 1.329463
383.900 1.459522
384.000 1.558062
384.100 1.661248
384.200 1.724618
384.300 1.793298
384.400 1.835103
384.500 1.872595
384.600 1.899137
384.700 1.915395
384.800 1.926012
384.900 1.931321
385.000 1.937293
385.100 1.954545
385.200 1.964831
385.300 1.963504
385.400 1.954214
385.500 1.944260
385.600 1.935634
385.700 1.939283
385.800 1.955541
385.900 1.970471
386.000 1.979098
386.100 1.976775
386.200 1.955541
386.300 1.917717
386.400 1.914068
386.500 1.920372
386.600 1.927007
386.700 1.938288
386.800 1.946583
386.900 1.947578
387.000 1.938288
387.100 1.923026
387.200 1.900796
387.300 1.890843
387.400 1.894824
387.500 1.902455
387.600 1.895488
387.700 1.874253
387.800 1.855342
387.900 1.834771
388.000 1.817850
388.100 1.785667
388.200 1.734240
388.300 1.685800
388.400 1.619443
388.500 1.530192
388.600 1.417386
388.700 1.263106
388.800 1.144658
388.900 1.087259
389.000 1.130060
389.100 1.251161
389.200 1.404778
389.300 1.513935
389.400 1.610816
389.500 1.671201
389.600 1.728268
389.700 1.778036
389.800 1.805906
389.900 1.825813
390.000 1.838421
390.100 1.865959
390.200 1.895820
390.300 1.913404
390.400 1.917717
390.500 1.913736
390.600 1.911082
390.700 1.922362
390.800 1.948905
390.900 1.974784
391.000 1.982415
391.100 1.986065
391.200 1.978434
391.300 1.962508
391.400 1.948242
391.500 1.949237
391.600 1.959190
391.700 1.964499
391.800 1.961845
391.900 1.951228
392.000 1.950564
392.100 1.952223
392.200 1.947246
392.300 1.934638
392.400 1.928666
392.500 1.934970
392.600 1.929662
392.700 1.926344
392.800 1.909754
392.900 1.890843
393.000 1.871599
393.100 1.827472
393.200 1.725614
393.300 1.599536
393.400 1.590246
393.500 1.673192
393.600 1.774386
393.700 1.836098
393.800 1.878235
393.900 1.903782
394.000 1.927339
394.100 1.943928
394.200 1.947246
394.300 1.936297
394.400 1.922031
394.500 1.905773
394.600 1.898806
394.700 1.902455
394.800 1.905773
394.900 1.901128
395.000 1.892833
395.100 1.881885
395.200 1.872595
395.300 1.872263
395.400 1.872263
395.500 1.862309
395.600 1.844725
395.700 1.825481
395.800 1.815528
395.900 1.802256
396.000 1.774718
396.100 1.741539
396.200 1.693431
396.300 1.649635
396.400 1.584937
396.500 1.504313
396.600 1.394824
396.700 1.216324
396.800 1.048441
396.900 0.939615
397.000 0.922362
397.100 1.001327
397.200 1.142668
397.300 1.277704
397.400 1.411745
397.500 1.507631
397.600 1.586596
397.700 1.648640
397.800 1.679827
397.900 1.722960
398.000 1.748839
398.100 1.773723
398.200 1.790312
398.300 1.800929
398.400 1.818845
398.500 1.834771
398.600 1.840411
398.700 1.833444
398.800 1.857332
398.900 1.865959
399.000 1.873258
399.100 1.879894
399.200 1.882216
399.300 1.887193
399.400 1.888852
399.500 1.891506
399.600 1.883875
399.700 1.879230
399.800 1.878235
399.900 1.880889
400.000 1.871599
400.100 1.861314
400.200 1.858991
400.300 1.855010
400.400 1.856337
400.500 1.857996
400.600 1.861314
400.700 1.862973
400.800 1.865627
400.900 1.862641
401.000 1.860650
401.100 1.863968
401.200 1.870604
401.300 1.874585
401.400 1.875581
401.500 1.878235
401.600 1.885866
401.700 1.896815
401.800 1.906105
401.900 1.910750
402.000 1.908759
402.100 1.901460
402.200 1.888188
402.300 1.859987
402.400 1.823490
402.500 1.793630
402.600 1.787989
402.700 1.808892
402.800 1.837425
402.900 1.859655
403.000 1.875249
403.100 1.879562
403.200 1.883543
403.300 1.884539
403.400 1.887857
403.500 1.896151
403.600 1.902123
403.700 1.905441
403.800 1.907764
403.900 1.905441
404.000 1.907764
404.100 1.909423
404.200 1.902455
404.300 1.894492
404.400 1.881221
404.500 1.867950
404.600 1.861646
404.700 1.870272
404.800 1.880889
404.900 1.890179
405.000 1.892502
405.100 1.890843
405.200 1.887857
405.300 1.878235
405.400 1.875249
405.500 1.881885
405.600 1.884871
405.700 1.887193
405.800 1.887857
405.900 1.890511
406.000 1.889516
406.100 1.877240
406.200 1.864964
406.300 1.854678
406.400 1.833444
406.500 1.788653
406.600 1.787658
406.700 1.798607
406.800 1.800929
406.900 1.799934
407.000 1.792303
407.100 1.781022
407.200 1.775713
407.300 1.772727
407.400 1.776709
407.500 1.775382
407.600 1.761778
407.700 1.751493
407.800 1.746848
407.900 1.757133
408.000 1.770405
408.100 1.776709
408.200 1.774386
408.300 1.766092
408.400 1.754479
408.500 1.743862
408.600 1.734240
408.700 1.733577
408.800 1.729595
408.900 1.725946
409.000 1.710352
409.100 1.693431
409.200 1.672860
409.300 1.636695
409.400 1.602522
409.500 1.550100
409.600 1.496019
409.700 1.432648
409.800 1.340080
409.900 1.237226
410.000 1.108825
410.100 1.003318
410.200 0.975780
410.300 1.039814
410.400 1.163902
410.500 1.300929
410.600 1.391838
410.700 1.462508
410.800 1.515594
410.900 1.550100
411.000 1.584937
411.100 1.611148
411.200 1.641009
411.300 1.662575
411.400 1.684141
411.500 1.703716
411.600 1.717651
411.700 1.718978
411.800 1.711347
411.900 1.708029
412.000 1.707034
412.100 1.708693
412.200 1.711347
412.300 1.717983
412.400 1.729927
412.500 1.741871
412.600 1.732913
412.700 1.714333
412.800 1.698407
412.900 1.690445
413.000 1.690776
413.100 1.699735
413.200 1.709356
413.300 1.721301
413.400 1.738885
413.500 1.747512
413.600 1.753484
413.700 1.757465
413.800 1.765760
413.900 1.771068
414.000 1.770405
414.100 1.763106
414.200 1.748175
414.300 1.732913
414.400 1.724618
414.500 1.731586
414.600 1.744857
414.700 1.753816
