# Wavelength (nm)   F_lamA (normalized erg/cm2/s/A)9.100 0.000077
9.400 0.000101
9.600 0.000121
9.800 0.000144
10.000 0.000170
10.200 0.000201
10.400 0.000236
10.600 0.000276
10.800 0.000320
11.000 0.000371
11.400 0.000490
11.800 0.000636
12.100 0.000764
12.500 0.000963
12.700 0.001076
12.800 0.001135
13.100 0.001326
13.200 0.001394
13.400 0.001537
13.700 0.001770
14.000 0.002024
14.300 0.002301
14.700 0.002703
15.100 0.003147
15.500 0.003629
15.900 0.004151
16.200 0.004570
16.600 0.005161
17.000 0.005790
17.300 0.006287
17.700 0.006981
18.000 0.007527
18.200 0.007901
18.600 0.008676
19.100 0.009691
19.400 0.010330
19.800 0.011195
20.200 0.012101
20.500 0.012793
21.000 0.013993
21.600 0.015490
22.000 0.016507
22.300 0.017301
22.700 0.018359
23.000 0.224405
23.400 0.233666
24.000 0.265724
24.600 0.319866
25.200 0.363932
25.700 0.302361
26.000 0.386729
26.400 0.458986
26.900 0.463057
27.400 0.466517
27.900 0.449827
28.400 0.466314
29.000 0.461836
29.600 0.428964
30.100 0.320680
30.800 0.375229
31.800 0.444331
32.800 0.441482
33.800 0.430389
34.800 0.420313
35.700 0.422451
36.600 0.423875
37.500 0.415021
38.500 0.392835
39.500 0.398942
40.500 0.396906
41.400 0.390088
42.200 0.379503
43.000 0.372074
44.100 0.370242
45.100 0.362711
46.000 0.352127
47.000 0.344800
48.000 0.340423
49.000 0.329025
50.000 0.326786
50.600 0.348361
51.200 0.406574
52.000 0.398229
53.000 0.390189
54.000 0.369835
55.000 0.364543
56.000 0.372583
57.000 0.366986
58.000 0.355282
59.000 0.352738
60.000 0.342153
61.000 0.332180
62.000 0.334622
63.000 0.327091
64.000 0.323122
65.000 0.315591
65.800 0.307551
66.500 0.307653
67.500 0.303888
68.500 0.292795
69.500 0.292795
70.500 0.281498
71.600 0.282516
72.600 0.278140
73.500 0.274171
74.500 0.268064
75.500 0.262976
76.500 0.256259
77.500 0.253715
78.500 0.249135
79.500 0.245166
80.500 0.241706
81.500 0.238144
82.500 0.234887
83.500 0.225117
84.500 0.226847
85.500 0.222573
86.500 0.220232
87.500 0.216772
88.500 0.213312
89.500 0.209750
90.500 0.205068
91.500 0.220436
92.500 0.379300
93.500 0.529106
94.500 0.775290
95.500 0.886424
96.500 1.032974
97.500 0.625789
98.500 1.099125
99.500 1.092001
100.500 1.126603
101.500 0.992367
102.500 0.572664
103.500 0.908610
104.500 1.080806
105.500 1.107266
106.500 1.067576
107.500 1.097089
108.500 1.032974
109.500 1.075717
110.500 1.049257
111.500 1.031956
112.500 0.982088
113.500 0.991044
114.500 0.947995
115.500 0.928862
116.500 0.905964
117.500 0.804905
118.500 0.821189
119.500 0.743741
120.500 0.645939
121.500 0.391105
122.500 0.615917
123.500 0.699980
124.500 0.725219
125.500 0.740179
126.500 0.730511
127.500 0.750763
128.500 0.757684
129.500 0.741197
130.500 0.734785
131.500 0.755038
132.500 0.748728
133.500 0.739161
134.500 0.753613
135.500 0.744046
136.500 0.737635
137.500 0.736312
138.500 0.736617
139.500 0.716365
140.500 0.708528
141.500 0.724812
142.500 0.715754
143.500 0.705577
144.200 0.716365
144.700 0.707714
145.500 0.712192
146.500 0.693263
147.500 0.693772
148.500 0.689192
149.500 0.683900
150.500 0.684816
151.200 0.678913
151.700 0.672094
152.500 0.668431
153.500 0.658050
154.500 0.655404
155.500 0.651130
156.500 0.634948
157.500 0.654793
158.500 0.663342
159.500 0.669550
160.500 0.638103
161.500 0.650315
162.500 0.634745
163.500 0.638815
164.500 0.654590
165.500 0.617851
166.500 0.674435
167.200 0.638612
167.700 0.664869
168.500 0.678506
169.500 0.661612
170.500 0.659170
171.500 0.669143
172.500 0.661917
173.500 0.675555
174.500 0.663240
175.500 0.674028
176.500 0.640444
177.500 0.661001
178.500 0.656931
179.500 0.668940
180.500 0.681864
181.500 0.676471
182.500 0.662121
183.500 0.665174
184.500 0.637187
185.500 0.645939
186.500 0.652758
187.500 0.652656
188.500 0.648382
189.500 0.649094
190.500 0.641767
191.500 0.644616
192.500 0.646957
193.500 0.628842
194.500 0.651333
195.500 0.645939
196.700 0.654386
197.600 0.642886
198.400 0.638714
199.500 0.633523
200.500 0.622023
201.500 0.621514
202.500 0.606961
203.500 0.627621
204.500 0.634236
205.500 0.610625
206.500 0.611744
207.400 0.637899
207.800 0.636882
208.500 0.634439
209.500 0.623855
210.500 0.618359
211.500 0.624059
212.500 0.621820
213.500 0.600855
214.500 0.620293
215.500 0.614594
216.500 0.596682
217.500 0.597089
218.500 0.605435
219.500 0.624975
220.500 0.610421
221.500 0.588541
222.500 0.595665
223.500 0.625585
224.500 0.605740
225.500 0.586302
226.500 0.575616
227.500 0.596988
228.500 0.604417
229.500 0.584063
230.500 0.597904
231.500 0.596377
232.500 0.551496
233.500 0.581824
234.500 0.542846
235.500 0.592917
236.500 0.552310
237.500 0.576837
238.500 0.524018
239.500 0.558213
240.500 0.551089
241.500 0.554753
242.500 0.589253
243.500 0.576633
244.500 0.590474
245.500 0.587523
246.500 0.582841
247.500 0.565439
248.500 0.560248
249.500 0.553633
250.500 0.596682
251.300 0.556686
251.800 0.537961
252.500 0.525239
253.500 0.534399
254.500 0.538164
255.500 0.571850
256.500 0.567678
257.500 0.591085
258.500 0.591288
259.500 0.584572
260.500 0.569408
261.500 0.555770
262.500 0.583656
263.500 0.598514
264.500 0.647568
265.500 0.655913
266.500 0.625280
267.500 0.642886
268.500 0.653877
269.500 0.624669
270.500 0.632913
271.500 0.603908
272.500 0.605638
273.500 0.623957
274.500 0.564624
275.500 0.585793
276.500 0.617647
277.500 0.636882
278.500 0.616222
279.500 0.463057
280.500 0.507531
281.500 0.653674
282.500 0.658355
283.500 0.649094
284.500 0.634134
285.500 0.587319
286.500 0.643497
287.500 0.645634
288.500 0.653470
289.500 0.657134
291.000 0.684103
293.000 0.673621
295.000 0.666395
297.000 0.670059
299.000 0.675555
301.000 0.678099
303.000 0.680643
305.000 0.686342
307.000 0.681966
309.000 0.681457
311.000 0.680949
313.000 0.679524
315.000 0.679625
317.000 0.687055
319.000 0.666701
321.000 0.681254
323.000 0.668431
325.000 0.690922
327.000 0.709343
329.000 0.710258
331.000 0.711378
332.200 0.608997
332.300 0.579483
332.400 0.572156
332.500 0.583147
332.600 0.584979
332.700 0.577855
332.800 0.584673
332.900 0.593527
333.000 0.611439
333.100 0.623855
333.200 0.618563
333.300 0.616528
333.400 0.601364
333.500 0.594342
333.600 0.586505
333.700 0.581926
333.800 0.593324
333.900 0.599837
334.000 0.602890
334.100 0.605333
334.200 0.599328
334.300 0.610116
334.400 0.624873
334.500 0.626298
334.600 0.622227
334.700 0.596275
334.800 0.568899
334.900 0.552208
335.000 0.564624
335.100 0.575209
335.200 0.571952
335.300 0.575819
335.400 0.589253
335.500 0.613780
335.600 0.615612
335.700 0.596377
335.800 0.555160
335.900 0.516182
336.000 0.491044
336.100 0.501832
336.200 0.529819
336.300 0.565540
336.400 0.589049
336.500 0.580602
336.600 0.571240
336.700 0.567881
336.800 0.564217
336.900 0.561775
337.000 0.535314
337.100 0.510889
337.200 0.502035
337.300 0.519133
337.400 0.547629
337.500 0.580602
337.600 0.595665
337.700 0.592815
337.800 0.576837
337.900 0.564319
338.000 0.567474
338.100 0.575921
338.200 0.578771
338.300 0.581111
338.400 0.586912
338.500 0.599125
338.600 0.595970
338.700 0.575310
338.800 0.559027
338.900 0.575514
339.000 0.597293
339.100 0.613474
339.200 0.604010
339.300 0.585487
339.400 0.588134
339.500 0.600651
339.600 0.618868
339.700 0.630368
339.800 0.639222
339.900 0.639324
340.000 0.633523
340.100 0.622736
340.200 0.601771
340.300 0.592917
340.400 0.583656
340.500 0.592306
340.600 0.596682
340.700 0.592611
340.800 0.580602
340.900 0.578364
341.000 0.595054
341.100 0.593222
341.200 0.587726
341.300 0.577041
341.400 0.575717
341.500 0.594443
341.600 0.608182
341.700 0.614492
341.800 0.620395
341.900 0.623550
342.000 0.628537
342.100 0.629147
342.200 0.611643
342.300 0.590067
342.400 0.583961
342.500 0.591594
342.600 0.598921
342.700 0.611337
342.800 0.630674
342.900 0.648484
343.000 0.657745
343.100 0.638917
343.200 0.617545
343.300 0.604620
343.400 0.616019
343.500 0.638510
343.600 0.643293
343.700 0.631386
343.800 0.614899
343.900 0.600651
344.000 0.591492
344.100 0.576226
344.200 0.566456
344.300 0.564014
344.400 0.571138
344.500 0.584572
344.600 0.605435
344.700 0.631997
344.800 0.648687
344.900 0.658762
345.000 0.640444
345.100 0.612762
345.200 0.592510
345.300 0.588541
345.400 0.599939
345.500 0.609912
345.600 0.611744
345.700 0.613067
345.800 0.609302
345.900 0.603806
346.000 0.590067
346.100 0.582333
346.200 0.593527
346.300 0.601160
346.400 0.607266
346.500 0.597802
346.600 0.597598
346.700 0.612660
346.800 0.632099
346.900 0.646245
347.000 0.651944
347.100 0.645736
347.200 0.635762
347.300 0.610014
347.400 0.588744
347.500 0.581315
347.600 0.584368
347.700 0.608488
347.800 0.627621
347.900 0.637696
348.000 0.647975
348.100 0.646448
348.200 0.639019
348.300 0.633523
348.400 0.630674
348.500 0.639121
348.600 0.652046
348.700 0.651333
348.800 0.641665
348.900 0.624873
349.000 0.611744
349.100 0.620191
349.200 0.636271
349.300 0.637085
349.400 0.631183
349.500 0.621209
349.600 0.610218
349.700 0.614797
349.800 0.612050
349.900 0.612660
350.000 0.609607
350.100 0.605638
350.200 0.615001
350.300 0.620598
350.400 0.622227
350.500 0.615001
350.600 0.606350
350.700 0.601669
350.800 0.595461
350.900 0.601873
351.000 0.606554
351.100 0.608182
351.200 0.601873
351.300 0.593019
351.400 0.594647
351.500 0.606554
351.600 0.632811
351.700 0.651333
351.800 0.654285
351.900 0.635355
352.000 0.619682
352.100 0.612253
352.200 0.606859
352.300 0.599125
352.400 0.586200
352.500 0.578364
352.600 0.586709
352.700 0.599634
352.800 0.615103
352.900 0.628231
353.000 0.639731
353.100 0.650214
353.200 0.644209
353.300 0.617952
353.400 0.601262
353.500 0.595461
353.600 0.618054
353.700 0.647568
353.800 0.660187
353.900 0.667718
354.000 0.663749
354.100 0.658050
354.200 0.656625
354.300 0.667108
354.400 0.675656
354.500 0.671179
354.600 0.665072
354.700 0.657032
354.800 0.652554
354.900 0.654183
355.000 0.663546
355.100 0.676572
355.200 0.673010
355.300 0.654386
355.400 0.639731
355.500 0.641156
355.600 0.651944
355.700 0.668431
355.800 0.679015
355.900 0.680440
356.000 0.676776
356.100 0.673621
356.200 0.667413
356.300 0.654590
356.400 0.635559
356.500 0.618868
356.600 0.613373
356.700 0.617138
356.800 0.618868
356.900 0.616629
357.000 0.606249
357.100 0.593120
357.200 0.589049
357.300 0.589457
357.400 0.595359
357.500 0.606656
357.600 0.617851
357.700 0.625178
357.800 0.630979
357.900 0.627010
358.000 0.614390
358.100 0.600142
358.200 0.590372
358.300 0.592204
358.400 0.589049
358.500 0.576430
358.600 0.558824
358.700 0.549969
358.800 0.561571
358.900 0.588337
359.000 0.611643
359.100 0.622023
359.200 0.618970
359.300 0.615510
359.400 0.619886
359.500 0.634541
359.600 0.647568
359.700 0.653267
359.800 0.652249
359.900 0.651333
360.000 0.650519
360.100 0.637187
360.200 0.626908
360.300 0.622736
360.400 0.630470
360.500 0.636780
360.600 0.633625
360.700 0.626399
360.800 0.618868
360.900 0.619072
361.000 0.618970
361.100 0.621616
361.200 0.628740
361.300 0.634643
361.400 0.643599
361.500 0.664869
361.600 0.666599
361.700 0.655608
361.800 0.636678
361.900 0.620395
362.000 0.629045
362.100 0.643090
362.200 0.653572
362.300 0.658762
362.400 0.664156
362.500 0.680643
362.600 0.701506
362.700 0.718604
362.800 0.711480
362.900 0.687564
363.000 0.650621
363.100 0.630470
363.200 0.637085
363.300 0.657948
363.400 0.668838
363.500 0.663647
363.600 0.659984
363.700 0.669855
363.800 0.682679
363.900 0.690006
364.000 0.691838
364.100 0.685834
364.200 0.674028
364.300 0.664055
364.400 0.658050
364.500 0.655608
364.600 0.652554
364.700 0.651231
364.800 0.651537
364.900 0.649298
365.000 0.648280
365.100 0.650621
365.200 0.663647
365.300 0.676572
365.400 0.690515
365.500 0.704050
365.600 0.713413
365.700 0.717281
365.800 0.714736
365.900 0.712192
366.000 0.710055
366.100 0.699674
366.200 0.688887
366.300 0.683086
366.400 0.686342
366.500 0.694179
366.600 0.696621
366.700 0.694891
366.800 0.686953
366.900 0.678404
367.000 0.676776
367.100 0.682170
367.200 0.692347
367.300 0.698962
367.400 0.696825
367.500 0.690922
367.600 0.675758
367.700 0.658762
367.800 0.648484
367.900 0.651028
368.000 0.659475
368.100 0.663851
368.200 0.665072
368.300 0.663953
368.400 0.664869
368.500 0.657032
368.600 0.651740
368.700 0.654183
368.800 0.673825
368.900 0.697435
369.000 0.698962
369.100 0.692550
369.200 0.687564
369.300 0.693059
369.400 0.702727
369.500 0.707918
369.600 0.699878
369.700 0.682679
369.800 0.692856
369.900 0.719011
370.000 0.750356
370.100 0.750865
370.200 0.709750
370.300 0.657745
370.400 0.621820
370.500 0.619682
370.600 0.638307
370.700 0.669347
370.800 0.689904
370.900 0.687462
371.000 0.659577
371.100 0.632200
371.200 0.622939
371.300 0.648382
371.400 0.701812
371.500 0.748524
371.600 0.779259
371.700 0.790047
371.800 0.771626
371.900 0.715347
372.000 0.636475
372.100 0.574394
372.200 0.564726
372.300 0.601669
372.400 0.679931
372.500 0.736108
372.600 0.770507
372.700 0.787604
372.800 0.796865
372.900 0.799715
373.000 0.792591
373.100 0.757175
373.200 0.679931
373.300 0.600142
373.400 0.538368
373.500 0.525850
373.600 0.568695
373.700 0.638103
373.800 0.709546
373.900 0.782923
374.000 0.825056
374.100 0.846835
374.200 0.836658
374.300 0.819560
374.400 0.793303
374.500 0.763688
374.600 0.730307
374.700 0.689701
374.800 0.631793
374.900 0.580297
375.000 0.553531
375.100 0.576226
375.200 0.629656
375.300 0.720944
375.400 0.786180
375.500 0.827498
375.600 0.847038
375.700 0.840118
375.800 0.830552
375.900 0.826277
376.000 0.828007
376.100 0.844800
376.200 0.855994
376.300 0.852025
376.400 0.841136
376.500 0.815490
376.600 0.788113
376.700 0.748321
376.800 0.683391
376.900 0.624364
377.000 0.569815
377.100 0.573784
377.200 0.622227
377.300 0.694789
377.400 0.750153
377.500 0.796255
377.600 0.821392
377.700 0.854264
377.800 0.892734
377.900 0.927030
378.000 0.964584
378.100 0.980664
378.200 0.984429
378.300 0.979849
378.400 0.975371
378.500 0.964889
378.600 0.954610
378.700 0.932628
378.800 0.915428
378.900 0.904030
379.000 0.893955
379.100 0.881946
379.200 0.853043
379.300 0.817830
379.400 0.765113
379.500 0.700387
379.600 0.632302
379.700 0.563098
379.800 0.537452
379.900 0.569509
380.000 0.650214
380.100 0.733869
380.200 0.809078
380.300 0.846123
380.400 0.883269
380.500 0.899043
380.600 0.913698
380.700 0.934968
380.800 0.959190
380.900 0.989925
381.000 1.010686
381.100 1.019744
381.200 1.001730
381.300 0.981274
381.400 0.964584
381.500 0.964889
381.600 0.979341
381.700 0.999186
381.800 1.004783
381.900 0.979748
382.000 0.957154
382.100 0.946876
382.200 0.953796
382.300 0.950438
382.400 0.922247
382.500 0.894565
382.600 0.869326
382.700 0.849379
382.800 0.821087
382.900 0.796560
383.000 0.771830
383.100 0.728577
383.200 0.683086
383.300 0.605129
383.400 0.542031
383.500 0.506513
383.600 0.513739
383.700 0.551292
383.800 0.614899
383.900 0.669041
384.000 0.723794
384.100 0.780684
384.200 0.830653
384.300 0.886526
384.400 0.921026
384.500 0.948300
384.600 0.972522
384.700 0.995827
384.800 1.011602
384.900 1.012009
385.000 1.013027
385.100 1.027885
385.200 1.054346
385.300 1.077753
385.400 1.080806
385.500 1.070629
385.600 1.056381
385.700 1.046204
385.800 1.035009
385.900 1.033991
386.000 1.047222
386.100 1.067576
386.200 1.079788
386.300 1.083859
386.400 1.079788
386.500 1.072664
386.600 1.072664
386.700 1.076735
386.800 1.080806
386.900 1.076735
387.000 1.060452
387.100 1.043151
387.200 1.015571
387.300 1.002442
387.400 0.997252
387.500 1.000509
387.600 0.994810
387.700 0.966619
387.800 0.940871
387.900 0.920822
388.000 0.920517
388.100 0.914411
388.200 0.888154
388.300 0.860778
388.400 0.816202
388.500 0.767047
388.600 0.700183
388.700 0.619479
388.800 0.560961
388.900 0.543456
389.000 0.578262
389.100 0.652453
389.200 0.722471
389.300 0.767759
389.400 0.805923
389.500 0.834114
389.600 0.874110
389.700 0.903012
389.800 0.925911
389.900 0.941380
390.000 0.954508
390.100 0.977509
390.200 0.989518
390.300 1.001832
390.400 1.000509
390.500 1.001730
390.600 1.015367
390.700 1.041115
390.800 1.075717
390.900 1.101160
391.000 1.115408
391.100 1.118461
391.200 1.117444
391.300 1.109302
391.400 1.097089
391.500 1.097089
391.600 1.104213
391.700 1.105231
391.800 1.100142
391.900 1.090983
392.000 1.088948
392.100 1.089965
392.200 1.093019
392.300 1.099125
392.400 1.099125
392.500 1.095054
392.600 1.072664
392.700 1.043151
392.800 1.003257
392.900 0.955526
393.000 0.895481
393.100 0.796764
393.200 0.677895
393.300 0.581111
393.400 0.563607
393.500 0.649807
393.600 0.773458
393.700 0.886118
393.800 0.975168
393.900 1.023814
394.000 1.051292
394.100 1.068594
394.200 1.074700
394.300 1.070629
394.400 1.071647
394.500 1.074700
394.600 1.081824
394.700 1.082841
394.800 1.075717
394.900 1.065540
395.000 1.060452
395.100 1.054346
395.200 1.047222
395.300 1.052310
395.400 1.049257
395.500 1.038062
395.600 1.022797
395.700 1.002748
395.800 0.996642
395.900 0.984429
396.000 0.955017
396.100 0.919703
396.200 0.873702
396.300 0.834114
396.400 0.785976
396.500 0.708935
396.600 0.609709
396.700 0.480358
396.800 0.388561
396.900 0.344392
397.000 0.383778
397.100 0.472217
397.200 0.581722
397.300 0.667209
397.400 0.747303
397.500 0.801547
397.600 0.855384
397.700 0.896194
397.800 0.931406
397.900 0.966009
398.000 0.981478
398.100 0.995217
398.200 1.008142
398.300 1.024832
398.400 1.045186
398.500 1.062487
398.600 1.077753
398.700 1.093019
398.800 1.112355
398.900 1.117444
399.000 1.119479
399.100 1.126603
399.200 1.133727
399.300 1.146957
399.400 1.152046
399.500 1.150010
399.600 1.135762
399.700 1.125585
399.800 1.125585
399.900 1.141869
400.000 1.155099
400.100 1.163240
400.200 1.165276
400.300 1.159170
400.400 1.147975
400.500 1.136780
400.600 1.139833
400.700 1.153063
400.800 1.173417
400.900 1.184612
401.000 1.189701
401.100 1.188683
401.200 1.183595
401.300 1.181559
401.400 1.181559
401.500 1.188683
401.600 1.194789
401.700 1.199878
401.800 1.207002
401.900 1.211073
402.000 1.215143
402.100 1.212090
402.200 1.207002
402.300 1.199878
402.400 1.193772
402.500 1.193772
402.600 1.199878
402.700 1.212090
402.800 1.214126
402.900 1.207002
403.000 1.189701
403.100 1.177488
403.200 1.172400
403.300 1.174435
403.400 1.183595
403.500 1.199878
403.600 1.216161
403.700 1.234480
403.800 1.237533
403.900 1.231427
404.000 1.222267
404.100 1.217179
404.200 1.218197
404.300 1.210055
404.400 1.183595
404.500 1.160187
404.600 1.151028
404.700 1.171382
404.800 1.197842
404.900 1.216161
405.000 1.218197
405.100 1.218197
405.200 1.213108
405.300 1.204966
405.400 1.196825
405.500 1.192754
405.600 1.193772
405.700 1.194789
405.800 1.197842
405.900 1.211073
406.000 1.217179
406.100 1.210055
406.200 1.183595
406.300 1.158152
406.400 1.145939
406.500 1.141869
406.600 1.146957
406.700 1.152046
406.800 1.153063
406.900 1.151028
407.000 1.140851
407.100 1.119479
407.200 1.110320
407.300 1.116426
407.400 1.124567
407.500 1.123550
407.600 1.102178
407.700 1.081824
407.800 1.072664
407.900 1.084877
408.000 1.104213
408.100 1.115408
408.200 1.114390
408.300 1.104213
408.400 1.093019
408.500 1.079788
408.600 1.077753
408.700 1.076735
408.800 1.075717
408.900 1.070629
409.000 1.055363
409.100 1.043151
409.200 1.031956
409.300 1.009363
409.400 0.988500
409.500 0.952168
409.600 0.921128
409.700 0.882964
409.800 0.832994
409.900 0.774069
410.000 0.682170
410.100 0.622227
410.200 0.605638
410.300 0.662630
410.400 0.740383
410.500 0.819357
410.600 0.863016
410.700 0.903725
410.800 0.929269
410.900 0.952880
411.000 0.977712
411.100 0.995522
411.200 1.019744
411.300 1.037045
411.400 1.056381
411.500 1.074700
411.600 1.083859
411.700 1.085895
411.800 1.081824
411.900 1.080806
412.000 1.084877
412.100 1.095054
412.200 1.107266
412.300 1.115408
412.400 1.124567
412.500 1.130674
412.600 1.132709
412.700 1.132709
412.800 1.132709
412.900 1.136780
413.000 1.134745
413.100 1.125585
413.200 1.117444
413.300 1.120497
413.400 1.135762
413.500 1.151028
413.600 1.162223
413.700 1.171382
413.800 1.181559
413.900 1.190719
414.000 1.189701
414.100 1.176471
414.200 1.159170
414.300 1.142886
414.400 1.141869
414.500 1.150010
414.600 1.165276
414.700 1.169347
414.800 1.171382
414.900 1.174435
415.000 1.177488
415.100 1.180541
415.200 1.176471
415.300 1.169347
415.400 1.162223
415.500 1.160187
