# Wavelength (nm)   F_lamA (normalized erg/cm2/s/A)9.100 0.000009
9.400 0.000016
9.600 0.000023
9.800 0.000032
10.000 0.000044
10.200 0.000060
10.400 0.000081
10.600 0.000108
10.800 0.000142
11.000 0.000184
11.400 0.000303
11.800 0.000479
12.100 0.000661
12.500 0.000991
12.700 0.001201
12.800 0.001319
13.100 0.001731
13.200 0.001890
13.400 0.002243
13.700 0.002873
14.000 0.003638
14.300 0.004559
14.700 0.006068
15.100 0.007946
15.500 0.010262
15.900 0.013067
16.200 0.015538
16.600 0.019372
17.000 0.023886
17.300 0.027761
17.700 0.033639
18.000 0.038616
18.200 0.042218
18.600 0.050149
19.100 0.061503
19.400 0.069120
19.800 0.080288
20.200 0.092640
20.500 0.102728
21.000 0.121050
21.600 0.145805
22.000 0.163922
22.300 0.178435
22.700 0.198919
23.000 4.911992
23.400 5.501801
24.000 7.081832
24.600 9.577972
25.200 12.063819
25.700 9.588266
26.000 13.396809
26.400 16.911992
26.900 17.442100
27.400 17.797221
27.900 16.680391
28.400 18.337622
29.000 18.322182
29.600 16.567164
30.100 10.818322
30.800 13.365929
31.800 17.184766
32.800 17.236233
33.800 16.762738
34.800 16.340710
35.700 16.855378
36.600 17.586207
37.500 17.251673
38.500 15.980443
39.500 16.803911
40.500 17.071539
41.400 16.870818
42.200 16.356150
43.000 15.980443
44.100 16.253217
45.100 16.047349
46.000 15.496655
47.000 15.234174
48.000 15.213587
49.000 14.611426
50.000 14.765826
50.600 16.042203
51.200 20.169840
52.000 19.629439
53.000 19.109624
54.000 17.807514
55.000 17.560473
56.000 18.615543
57.000 18.455996
58.000 17.807514
59.000 17.797221
60.000 17.128152
61.000 16.649511
62.000 17.169326
63.000 16.752445
64.000 16.675244
65.000 16.278950
65.800 15.810602
66.500 15.959856
67.500 15.877509
68.500 15.162120
69.500 15.357694
70.500 14.601132
71.600 14.951107
72.600 14.760679
73.500 14.601132
74.500 14.271745
75.500 14.014411
76.500 13.607823
77.500 13.571796
78.500 13.345342
79.500 13.190942
80.500 13.041688
81.500 12.897581
82.500 12.758621
83.500 12.058672
84.500 12.357180
85.500 12.146166
86.500 12.068966
87.500 11.909418
88.500 11.739578
89.500 11.564591
90.500 11.317550
91.500 11.677818
92.500 22.223366
93.500 31.518271
94.500 45.244467
95.500 51.044776
96.500 58.826557
97.500 35.074627
98.500 59.444159
99.500 56.562017
100.500 59.083891
101.500 55.069480
102.500 33.849717
103.500 50.514668
104.500 57.436953
105.500 56.407617
106.500 52.804941
107.500 53.525476
108.500 49.552239
109.500 52.135872
110.500 50.113227
111.500 49.248585
112.500 46.582604
113.500 47.529593
114.500 45.625322
115.500 45.244467
116.500 44.539372
117.500 39.114771
118.500 42.043232
119.500 39.624292
120.500 35.892949
121.500 23.057128
122.500 34.791559
123.500 37.503860
124.500 37.344313
125.500 36.917138
126.500 36.047349
127.500 36.016469
128.500 35.440041
129.500 33.726197
130.500 33.221822
131.500 33.468863
132.500 32.485847
133.500 31.466804
134.500 31.487391
135.500 30.957283
136.500 30.082347
137.500 29.526505
138.500 29.119918
139.500 27.102419
140.500 26.459084
141.500 27.488420
142.500 26.798765
143.500 26.531137
144.200 26.284097
144.700 26.021616
145.500 25.568708
146.500 25.033453
147.500 24.606279
148.500 24.215131
149.500 23.741637
150.500 23.196089
151.200 22.743181
151.700 22.650540
152.500 22.290273
153.500 21.327844
154.500 20.679362
155.500 20.252187
156.500 20.391148
157.500 20.324241
158.500 20.092640
159.500 19.835306
160.500 19.145651
161.500 18.816264
162.500 18.538343
163.500 18.286155
164.500 17.673700
165.500 17.802367
166.500 17.673700
167.200 17.189913
167.700 17.447247
168.500 17.215646
169.500 16.860525
170.500 16.500257
171.500 16.078230
172.500 15.846629
173.500 15.815749
174.500 15.496655
175.500 15.337108
176.500 14.904786
177.500 14.806999
178.500 14.632012
179.500 14.457025
180.500 14.276891
181.500 13.957797
182.500 13.787957
183.500 13.576943
184.500 13.149768
185.500 12.882141
186.500 12.784354
187.500 12.738034
188.500 12.316006
189.500 12.007205
190.500 12.084406
191.500 11.760165
192.500 11.518271
193.500 11.523417
194.500 11.477097
195.500 11.075656
196.700 11.106536
197.600 11.065363
198.400 10.808029
199.500 10.540401
200.500 10.524961
201.500 10.416881
202.500 10.339681
203.500 10.102934
204.500 9.974267
205.500 9.001544
206.500 9.217705
207.400 9.696346
207.800 9.541945
208.500 9.505919
209.500 9.310345
210.500 9.269171
211.500 9.191971
212.500 9.104478
213.500 8.950077
214.500 8.811117
215.500 8.759650
216.500 8.584663
217.500 8.507463
218.500 8.368502
219.500 8.332476
220.500 8.198662
221.500 8.039115
222.500 7.946475
223.500 7.884714
224.500 7.776634
225.500 7.617087
226.500 7.570767
227.500 7.488420
228.500 7.406073
229.500 7.231086
230.500 7.159032
231.500 7.102419
232.500 6.695831
233.500 6.906845
234.500 6.783325
235.500 6.752445
236.500 6.628924
237.500 6.572311
238.500 6.402470
239.500 6.407617
240.500 6.320124
241.500 6.248070
242.500 6.201750
243.500 6.103963
244.500 6.047349
245.500 5.980443
246.500 5.898096
247.500 5.826042
248.500 5.774575
249.500 5.568708
250.500 5.645908
251.300 5.455481
251.800 5.542975
252.500 5.486361
253.500 5.414308
254.500 5.347401
255.500 5.321668
256.500 5.254761
257.500 5.213587
258.500 5.156974
259.500 5.097272
260.500 5.030880
261.500 4.971693
262.500 4.925888
263.500 4.873906
264.500 4.865157
265.500 4.810602
266.500 4.739063
267.500 4.697375
268.500 4.663407
269.500 4.584148
270.500 4.555841
271.500 4.496140
272.500 4.426660
273.500 4.376737
274.500 4.322182
275.500 4.282038
276.500 4.237777
277.500 4.229542
278.500 4.179619
279.500 4.067936
280.500 4.061760
281.500 4.062275
282.500 3.999485
283.500 3.953680
284.500 3.925373
285.500 3.884200
286.500 3.855893
287.500 3.813690
288.500 3.778693
289.500 3.741637
291.000 3.693773
293.000 3.613999
295.000 3.527535
297.000 3.476068
299.000 3.408132
301.000 3.336593
303.000 3.264025
305.000 3.193515
307.000 3.123520
309.000 3.056613
311.000 2.992280
313.000 2.926402
315.000 2.867216
317.000 2.809058
319.000 2.732373
321.000 2.686567
323.000 2.638703
325.000 2.589295
327.000 2.541945
329.000 2.490479
331.000 2.445188
332.200 2.446732
332.300 2.462687
332.400 2.446217
332.500 2.435924
332.600 2.421513
332.700 2.413278
332.800 2.410190
332.900 2.411220
333.000 2.410705
333.100 2.408646
333.200 2.397838
333.300 2.376222
333.400 2.361297
333.500 2.351518
333.600 2.346372
333.700 2.332476
333.800 2.305198
333.900 2.295419
334.000 2.285126
334.100 2.310345
334.200 2.328358
334.300 2.366958
334.400 2.393206
334.500 2.412249
334.600 2.435924
334.700 2.442615
334.800 2.409676
334.900 2.347916
335.000 2.252702
335.100 2.252702
335.200 2.284611
335.300 2.302625
335.400 2.295934
335.500 2.272259
335.600 2.271230
335.700 2.279979
335.800 2.291302
335.900 2.296449
336.000 2.308286
336.100 2.299537
336.200 2.304683
336.300 2.291817
336.400 2.285641
336.500 2.262481
336.600 2.240865
336.700 2.221822
336.800 2.213587
336.900 2.224395
337.000 2.259393
337.100 2.262995
337.200 2.233145
337.300 2.220793
337.400 2.227483
337.500 2.266083
337.600 2.281009
337.700 2.243953
337.800 2.229027
337.900 2.222337
338.000 2.249099
338.100 2.275862
338.200 2.294905
338.300 2.295934
338.400 2.287699
338.500 2.291817
338.600 2.298507
338.700 2.296449
338.800 2.290787
338.900 2.282038
339.000 2.286670
339.100 2.293361
339.200 2.301595
339.300 2.304169
339.400 2.322182
339.500 2.324756
339.600 2.317036
339.700 2.287699
339.800 2.262995
339.900 2.215646
340.000 2.190427
340.100 2.209470
340.200 2.193001
340.300 2.180648
340.400 2.179619
340.500 2.184766
340.600 2.177046
340.700 2.187339
340.800 2.202779
340.900 2.214102
341.000 2.214617
341.100 2.179619
341.200 2.184251
341.300 2.207411
341.400 2.234689
341.500 2.246011
341.600 2.246526
341.700 2.244467
341.800 2.250129
341.900 2.257849
342.000 2.254761
342.100 2.249614
342.200 2.239321
342.300 2.237262
342.400 2.237262
342.500 2.232630
342.600 2.243438
342.700 2.248585
342.800 2.256305
342.900 2.255275
343.000 2.232630
343.100 2.235203
343.200 2.234689
343.300 2.243438
343.400 2.246011
343.500 2.246011
343.600 2.249099
343.700 2.243953
343.800 2.245497
343.900 2.234174
344.000 2.201235
344.100 2.183736
344.200 2.178075
344.300 2.195574
344.400 2.205867
344.500 2.193515
344.600 2.190427
344.700 2.191457
344.800 2.211529
344.900 2.225939
345.000 2.175502
345.100 2.133299
345.200 2.113227
345.300 2.109110
345.400 2.118374
345.500 2.119403
345.600 2.121462
345.700 2.122491
345.800 2.117859
345.900 2.114771
346.000 2.108080
346.100 2.104478
346.200 2.112198
346.300 2.151827
346.400 2.130726
346.500 2.134328
346.600 2.143078
346.700 2.141019
346.800 2.133299
346.900 2.125579
347.000 2.135358
347.100 2.123520
347.200 2.119403
347.300 2.126608
347.400 2.132270
347.500 2.126608
347.600 2.116315
347.700 2.081318
347.800 2.048379
347.900 2.029851
348.000 2.042717
348.100 2.066392
348.200 2.053011
348.300 2.031395
348.400 2.032939
348.500 2.069480
348.600 2.098302
348.700 2.115800
348.800 2.141019
348.900 2.142048
349.000 2.129696
349.100 2.125579
349.200 2.142048
349.300 2.145136
349.400 2.133299
349.500 2.118374
349.600 2.109110
349.700 2.115286
349.800 2.125064
349.900 2.113227
350.000 2.073598
350.100 2.053525
350.200 2.063304
350.300 2.072054
350.400 2.055584
350.500 2.031395
350.600 2.021616
350.700 2.027277
350.800 2.045805
350.900 2.051467
351.000 2.055584
351.100 2.056099
351.200 2.049408
351.300 2.035512
351.400 2.036027
351.500 2.048893
351.600 2.058157
351.700 2.053011
351.800 2.053011
351.900 2.058672
352.000 2.062275
352.100 2.055069
352.200 2.045805
352.300 2.048379
352.400 2.062790
352.500 2.060216
352.600 2.054555
352.700 2.048893
352.800 2.050437
352.900 2.060731
353.000 2.071024
353.100 2.079259
353.200 2.090067
353.300 2.080803
353.400 2.061245
353.500 2.055584
353.600 2.056613
353.700 2.044261
353.800 2.042717
353.900 2.042717
354.000 2.051981
354.100 2.057128
354.200 2.059701
354.300 2.059701
354.400 2.066392
354.500 2.069480
354.600 2.066392
354.700 2.072568
354.800 2.076171
354.900 2.071024
355.000 2.064334
355.100 2.063304
355.200 2.071024
355.300 2.074627
355.400 2.065363
355.500 2.058157
355.600 2.051981
355.700 2.054555
355.800 2.055584
355.900 2.050437
356.000 2.042203
356.100 2.049408
356.200 2.057128
356.300 2.052496
356.400 2.038085
356.500 2.032424
356.600 2.034997
356.700 2.027792
356.800 2.036027
356.900 2.029336
357.000 2.006691
357.100 1.958312
357.200 1.937210
357.300 1.936181
357.400 1.935666
357.500 1.938755
357.600 1.951621
357.700 1.949048
357.800 1.940813
357.900 1.935666
358.000 1.939784
358.100 1.948533
358.200 1.946475
358.300 1.938240
358.400 1.935152
358.500 1.928976
358.600 1.923314
358.700 1.918682
358.800 1.910448
358.900 1.915594
359.000 1.929490
359.100 1.930005
359.200 1.921770
359.300 1.921256
359.400 1.924858
359.500 1.927946
359.600 1.925888
359.700 1.930520
359.800 1.937725
359.900 1.941328
360.000 1.948533
360.100 1.946989
360.200 1.952651
360.300 1.946989
360.400 1.938240
360.500 1.933608
360.600 1.935152
360.700 1.938240
360.800 1.945445
360.900 1.953680
361.000 1.958312
361.100 1.946475
361.200 1.941328
361.300 1.934637
361.400 1.926402
361.500 1.922285
361.600 1.931034
361.700 1.938755
361.800 1.952651
361.900 1.965517
362.000 1.955224
362.100 1.952651
362.200 1.969120
362.300 1.971693
362.400 1.964488
362.500 1.965003
362.600 1.974781
362.700 1.983531
362.800 1.979413
362.900 1.967061
363.000 1.965517
363.100 1.965517
363.200 1.963459
363.300 1.963459
363.400 1.979928
363.500 1.973237
363.600 1.931549
363.700 1.915594
363.800 1.917653
363.900 1.921256
364.000 1.924344
364.100 1.928976
364.200 1.935666
364.300 1.929490
364.400 1.916109
364.500 1.914565
364.600 1.905301
364.700 1.906845
364.800 1.910962
364.900 1.910962
365.000 1.911477
365.100 1.907360
365.200 1.904272
365.300 1.901698
365.400 1.900669
365.500 1.901698
365.600 1.908389
365.700 1.904786
365.800 1.897066
365.900 1.889861
366.000 1.880082
366.100 1.882141
366.200 1.880597
366.300 1.888317
366.400 1.889861
366.500 1.882656
366.600 1.880082
366.700 1.873906
366.800 1.871848
366.900 1.878024
367.000 1.884200
367.100 1.882656
367.200 1.878024
367.300 1.867216
367.400 1.861554
367.500 1.851776
367.600 1.854349
367.700 1.850232
367.800 1.845085
367.900 1.845600
368.000 1.848688
368.100 1.860010
368.200 1.856408
368.300 1.853320
368.400 1.853320
368.500 1.844056
368.600 1.827586
368.700 1.827072
368.800 1.852290
368.900 1.884200
369.000 1.875965
369.100 1.838394
369.200 1.841482
369.300 1.870304
369.400 1.898610
369.500 1.889861
369.600 1.841997
369.700 1.817808
369.800 1.820896
369.900 1.876994
370.000 1.936181
370.100 1.941843
370.200 1.885229
370.300 1.780237
370.400 1.731343
370.500 1.731343
370.600 1.805455
370.700 1.878024
370.800 1.938755
370.900 1.910448
371.000 1.831704
371.100 1.745239
371.200 1.698405
371.300 1.725682
371.400 1.805455
371.500 1.932578
371.600 2.003088
371.700 2.038085
371.800 2.026248
371.900 1.944416
372.000 1.795162
372.100 1.709213
372.200 1.657746
372.300 1.705095
372.400 1.801853
372.500 1.926917
372.600 1.979928
372.700 2.047864
372.800 2.075656
372.900 2.083891
373.000 2.060216
373.100 1.983531
373.200 1.845600
373.300 1.722079
373.400 1.617087
373.500 1.604220
373.600 1.675759
373.700 1.822440
373.800 1.932578
373.900 2.061245
374.000 2.124035
374.100 2.165208
374.200 2.172928
374.300 2.156459
374.400 2.131240
374.500 2.089552
374.600 2.011837
374.700 1.898096
374.800 1.769943
374.900 1.609367
375.000 1.562532
375.100 1.594442
375.200 1.706639
375.300 1.820381
375.400 1.952651
375.500 2.020587
375.600 2.086464
375.700 2.099331
375.800 2.094184
375.900 2.078744
376.000 2.065363
376.100 2.062790
376.200 2.101904
376.300 2.112198
376.400 2.093670
376.500 2.047864
376.600 1.977355
376.700 1.900154
376.800 1.773031
376.900 1.626866
377.000 1.517756
377.100 1.479671
377.200 1.570252
377.300 1.716933
377.400 1.840453
377.500 1.946989
377.600 2.026248
377.700 2.080288
377.800 2.130726
377.900 2.156974
378.000 2.184766
378.100 2.199691
378.200 2.211014
378.300 2.203294
378.400 2.197118
378.500 2.202779
378.600 2.199691
378.700 2.191457
378.800 2.180648
378.900 2.160576
379.000 2.130726
379.100 2.093670
379.200 2.044261
379.300 1.984560
379.400 1.908904
379.500 1.774061
379.600 1.632012
379.700 1.485847
379.800 1.418425
379.900 1.476068
380.000 1.635100
380.100 1.772517
380.200 1.902728
380.300 1.978899
380.400 2.038085
380.500 2.088008
380.600 2.108595
380.700 2.133299
380.800 2.157488
380.900 2.183222
381.000 2.206382
381.100 2.219763
381.200 2.209470
381.300 2.188883
381.400 2.172928
381.500 2.168296
381.600 2.164694
381.700 2.155944
381.800 2.129696
381.900 2.092126
382.000 2.069995
382.100 2.077200
382.200 2.120947
382.300 2.132784
382.400 2.123520
382.500 2.102934
382.600 2.072568
382.700 2.057128
382.800 2.029336
382.900 1.983531
383.000 1.931034
383.100 1.852805
383.200 1.756047
383.300 1.619660
383.400 1.442100
383.500 1.362841
383.600 1.361297
383.700 1.464745
383.800 1.603706
383.900 1.752959
384.000 1.848688
384.100 1.940813
384.200 1.995883
384.300 2.053011
384.400 2.089552
384.500 2.118374
384.600 2.132784
384.700 2.142048
384.800 2.144622
384.900 2.146680
385.000 2.151827
385.100 2.170870
385.200 2.183736
385.300 2.177560
385.400 2.158518
385.500 2.139990
385.600 2.127638
385.700 2.133814
385.800 2.155944
385.900 2.175502
386.000 2.186310
386.100 2.180648
386.200 2.152856
386.300 2.106536
386.400 2.102934
386.500 2.109624
386.600 2.113742
386.700 2.126094
386.800 2.133814
386.900 2.134328
387.000 2.127638
387.100 2.110654
387.200 2.091611
387.300 2.089038
387.400 2.100360
387.500 2.111683
387.600 2.102934
387.700 2.083376
387.800 2.069480
387.900 2.058672
388.000 2.049923
388.100 2.019557
388.200 1.973752
388.300 1.930005
388.400 1.875450
388.500 1.787442
388.600 1.668554
388.700 1.497684
388.800 1.353062
388.900 1.288214
389.000 1.346372
389.100 1.490993
389.200 1.667010
389.300 1.783839
389.400 1.875965
389.500 1.933093
389.600 1.980957
389.700 2.022645
389.800 2.043747
389.900 2.055069
390.000 2.061760
390.100 2.082862
390.200 2.108080
390.300 2.124035
390.400 2.127638
390.500 2.119918
390.600 2.111683
390.700 2.121976
390.800 2.147195
390.900 2.165723
391.000 2.166752
391.100 2.169326
391.200 2.163664
391.300 2.147710
391.400 2.136387
391.500 2.140504
391.600 2.151312
391.700 2.155944
391.800 2.148739
391.900 2.130726
392.000 2.126608
392.100 2.126608
392.200 2.118888
392.300 2.100360
392.400 2.092640
392.500 2.101904
392.600 2.098302
392.700 2.104992
392.800 2.102419
392.900 2.096243
393.000 2.085950
393.100 2.040144
393.200 1.919712
393.300 1.762738
393.400 1.761194
393.500 1.881626
393.600 2.004117
393.700 2.065363
393.800 2.095214
393.900 2.111683
394.000 2.129182
394.100 2.141534
394.200 2.141019
394.300 2.120947
394.400 2.101904
394.500 2.083376
394.600 2.074627
394.700 2.079774
394.800 2.084920
394.900 2.083376
395.000 2.076171
395.100 2.064848
395.200 2.056099
395.300 2.053011
395.400 2.052496
395.500 2.039115
395.600 2.022131
395.700 2.009779
395.800 2.005661
395.900 2.000000
396.000 1.978899
396.100 1.952136
396.200 1.914565
396.300 1.873392
396.400 1.817808
396.500 1.744725
396.600 1.641791
396.700 1.448276
396.800 1.246526
396.900 1.127123
397.000 1.114771
397.100 1.213587
397.200 1.378281
397.300 1.526505
397.400 1.656202
397.500 1.747813
397.600 1.811631
397.700 1.861554
397.800 1.882656
397.900 1.918682
398.000 1.940299
398.100 1.960885
398.200 1.972208
398.300 1.977355
398.400 1.990221
398.500 2.001544
398.600 1.998456
398.700 1.983016
398.800 2.016469
398.900 2.026763
399.000 2.034997
399.100 2.039115
399.200 2.038085
399.300 2.037571
399.400 2.032939
399.500 2.037056
399.600 2.031395
399.700 2.028821
399.800 2.030880
399.900 2.036027
400.000 2.021101
400.100 2.006176
400.200 2.002059
400.300 1.998456
400.400 2.001029
400.500 2.005661
400.600 2.009264
400.700 2.008749
400.800 2.004632
400.900 1.993309
401.000 1.990221
401.100 2.001029
401.200 2.011837
401.300 2.018528
401.400 2.021101
401.500 2.022645
401.600 2.029336
401.700 2.040659
401.800 2.048893
401.900 2.053011
402.000 2.048893
402.100 2.039115
402.200 2.027792
402.300 1.993824
402.400 1.941328
402.500 1.893464
402.600 1.880082
402.700 1.909418
402.800 1.959856
402.900 1.994853
403.000 2.022131
403.100 2.028307
403.200 2.029851
403.300 2.026763
403.400 2.026248
403.500 2.032939
403.600 2.038600
403.700 2.038600
403.800 2.038600
403.900 2.035512
404.000 2.039115
404.100 2.045291
404.200 2.039115
404.300 2.029851
404.400 2.018528
404.500 2.006176
404.600 2.002059
404.700 2.010808
404.800 2.020072
404.900 2.027792
405.000 2.028307
405.100 2.025219
405.200 2.025219
405.300 2.015955
405.400 2.014925
405.500 2.023160
405.600 2.023160
405.700 2.024189
405.800 2.025733
405.900 2.027277
406.000 2.026763
406.100 2.014925
406.200 2.002059
406.300 1.992280
406.400 1.965517
406.500 1.906330
406.600 1.911992
406.700 1.927946
406.800 1.927946
406.900 1.923829
407.000 1.913021
407.100 1.903242
407.200 1.901698
407.300 1.899640
407.400 1.903757
407.500 1.901184
407.600 1.888832
407.700 1.879053
407.800 1.879053
407.900 1.893464
408.000 1.905816
408.100 1.910448
408.200 1.907874
408.300 1.900669
408.400 1.886258
408.500 1.878024
408.600 1.869789
408.700 1.872877
408.800 1.870304
408.900 1.863613
409.000 1.846629
409.100 1.833248
409.200 1.820381
409.300 1.795162
409.400 1.764282
409.500 1.714874
409.600 1.661863
409.700 1.603706
409.800 1.510036
409.900 1.396809
410.000 1.256305
410.100 1.131755
410.200 1.106022
410.300 1.188883
410.400 1.337622
410.500 1.483273
410.600 1.577972
410.700 1.641276
410.800 1.691199
410.900 1.718991
411.000 1.746269
411.100 1.768399
411.200 1.790530
411.300 1.808029
411.400 1.826042
411.500 1.841997
411.600 1.854349
411.700 1.851776
411.800 1.839424
411.900 1.831704
412.000 1.824498
412.100 1.826557
412.200 1.832218
412.300 1.843541
412.400 1.854864
412.500 1.864642
412.600 1.853834
412.700 1.833248
412.800 1.815234
412.900 1.806485
413.000 1.808029
413.100 1.818837
413.200 1.830160
413.300 1.843541
413.400 1.862069
413.500 1.870304
413.600 1.873392
413.700 1.872877
413.800 1.878024
413.900 1.880082
414.000 1.880597
414.100 1.874421
414.200 1.854349
414.300 1.835821
414.400 1.823984
