# Wavelength (nm)   F_lamA (normalized erg/cm2/s/A)9.100 0.000001
9.400 0.000002
9.600 0.000003
9.800 0.000005
10.000 0.000008
10.200 0.000012
10.400 0.000018
10.600 0.000026
10.800 0.000038
11.000 0.000055
11.400 0.000107
11.800 0.000199
12.100 0.000308
12.500 0.000529
12.700 0.000684
12.800 0.000775
13.100 0.001113
13.200 0.001251
13.400 0.001570
13.700 0.002174
14.000 0.002964
14.300 0.003981
14.700 0.005774
15.100 0.008181
15.500 0.011347
15.900 0.015444
16.200 0.019233
16.600 0.025398
17.000 0.033003
17.300 0.039794
17.700 0.050458
18.000 0.059794
18.200 0.066707
18.600 0.082301
19.100 0.105426
19.400 0.121422
19.800 0.145276
20.200 0.172311
20.500 0.194855
21.000 0.236763
21.600 0.294574
22.000 0.337979
22.300 0.373152
22.700 0.423480
23.000 13.956969
23.400 15.369504
24.000 19.850327
24.600 27.156221
25.200 33.199252
25.700 25.668849
26.000 36.679139
26.400 46.323667
26.900 47.146866
27.400 47.876520
27.900 46.033676
28.400 48.428438
29.000 48.185220
29.600 44.293732
30.100 30.682881
30.800 38.147802
31.800 47.502339
32.800 47.623948
33.800 46.679139
34.800 45.818522
35.700 46.482694
36.600 47.025257
37.500 46.239476
38.500 43.769878
39.500 44.883068
40.500 44.948550
41.400 44.349860
42.200 43.217961
43.000 42.497661
44.100 42.544434
45.100 41.833489
46.000 40.692236
47.000 39.971936
48.000 39.607109
49.000 38.353601
50.000 38.250702
50.600 41.150608
51.200 48.755847
52.000 47.811038
53.000 46.950421
54.000 44.480823
55.000 43.938260
56.000 45.107577
57.000 44.518241
58.000 43.124415
59.000 42.918616
60.000 41.665108
61.000 40.477081
62.000 40.898036
63.000 40.018709
64.000 39.588400
65.000 38.699719
65.800 37.726848
66.500 37.782975
67.500 37.371375
68.500 36.014967
69.500 36.080449
70.500 34.686623
71.600 34.883068
72.600 34.359214
73.500 33.891487
74.500 33.161833
75.500 32.544434
76.500 31.721235
77.500 31.431244
78.500 30.879326
79.500 30.402245
80.500 30.000000
81.500 29.560337
82.500 29.167446
83.500 27.942002
84.500 28.185220
85.500 27.670720
86.500 27.380730
87.500 26.959775
88.500 26.520112
89.500 26.089804
90.500 25.500468
91.500 27.146866
92.500 45.837231
93.500 61.721235
94.500 83.741815
95.500 89.981291
96.500 101.590271
97.500 68.587465
98.500 99.251637
99.500 93.274088
100.500 96.538821
101.500 92.282507
102.500 63.723106
103.500 86.576239
104.500 90.720299
105.500 88.783910
106.500 84.396632
107.500 83.835360
108.500 78.138447
109.500 81.057063
110.500 78.381665
111.500 76.735267
112.500 73.302152
113.500 73.676333
114.500 71.421890
115.500 70.102900
116.500 68.709074
117.500 61.955098
118.500 65.098223
119.500 62.974743
120.500 59.532273
121.500 42.768943
122.500 57.390084
123.500 58.269411
124.500 57.090739
125.500 56.454630
126.500 55.275959
127.500 54.387278
128.500 53.302152
129.500 51.356408
130.500 50.495790
131.500 50.056127
132.500 48.727783
133.500 47.436857
134.500 46.959775
135.500 46.061740
136.500 44.967259
137.500 44.003742
138.500 43.227315
139.500 40.645463
140.500 39.494855
141.500 40.692236
142.500 39.700655
143.500 39.120674
144.200 38.596819
144.700 38.203929
145.500 37.558466
146.500 36.828812
147.500 36.127222
148.500 35.500468
149.500 34.770814
150.500 34.041160
151.200 33.554724
151.700 33.264733
152.500 32.712816
153.500 31.627689
154.500 30.486436
155.500 30.000000
156.500 30.009355
157.500 29.672591
158.500 29.232928
159.500 28.718428
160.500 27.857811
161.500 27.343312
162.500 26.903648
163.500 26.286249
164.500 25.191768
165.500 25.696913
166.500 25.294668
167.200 24.817587
167.700 24.911132
168.500 24.536950
169.500 24.078578
170.500 23.601497
171.500 23.002806
172.500 22.684752
173.500 22.478952
174.500 22.048644
175.500 21.683817
176.500 21.253508
177.500 20.963517
178.500 20.664172
179.500 20.327409
180.500 20.018709
181.500 19.644528
182.500 19.335828
183.500 19.027128
184.500 18.578110
185.500 18.194574
186.500 17.970065
187.500 17.782975
188.500 17.343312
189.500 16.969130
190.500 16.884939
191.500 16.501403
192.500 16.183349
193.500 16.061740
194.500 15.893358
195.500 15.472404
196.700 15.341441
197.600 15.191768
198.400 14.920486
199.500 14.583723
200.500 14.480823
201.500 14.303087
202.500 14.115996
203.500 13.854069
204.500 13.638915
205.500 11.955098
206.500 12.291862
207.400 13.124415
207.800 13.021515
208.500 12.927970
209.500 12.722170
210.500 12.581852
211.500 12.460243
212.500 12.291862
213.500 12.104771
214.500 11.908326
215.500 11.805426
216.500 11.562208
217.500 11.468662
218.500 11.244153
219.500 11.159963
220.500 10.991581
221.500 10.757717
222.500 10.673527
223.500 10.533209
224.500 10.392891
225.500 10.159027
226.500 10.102900
227.500 9.962582
228.500 9.831618
229.500 9.616464
230.500 9.476146
231.500 9.429373
232.500 9.080449
233.500 9.162769
234.500 9.030870
235.500 8.927970
236.500 8.794200
237.500 8.684752
238.500 8.465856
239.500 8.448082
240.500 8.338634
241.500 8.231057
242.500 8.137512
243.500 8.026193
244.500 7.926099
245.500 7.826006
246.500 7.722170
247.500 7.622077
248.500 7.526660
249.500 7.290926
250.500 7.333022
251.300 7.055192
251.800 7.204864
252.500 7.144060
253.500 7.052385
254.500 6.960711
255.500 6.888681
256.500 6.800748
257.500 6.723106
258.500 6.638915
259.500 6.553789
260.500 6.473340
261.500 6.391020
262.500 6.321796
263.500 6.248831
264.500 6.200187
265.500 6.125351
266.500 6.041160
267.500 5.971936
268.500 5.920486
269.500 5.822264
270.500 5.777362
271.500 5.702526
272.500 5.612722
273.500 5.509822
274.500 5.486436
275.500 5.430309
276.500 5.352666
277.500 5.324602
278.500 5.256314
279.500 5.148737
280.500 5.106642
281.500 5.087933
282.500 5.013096
283.500 4.964453
284.500 4.920486
285.500 4.860617
286.500 4.815716
287.500 4.761459
288.500 4.711880
289.500 4.658559
291.000 4.591207
293.000 4.489242
295.000 4.375117
297.000 4.302152
299.000 4.212348
301.000 4.107577
303.000 4.004677
305.000 3.905519
307.000 3.809167
309.000 3.717493
311.000 3.625819
313.000 3.536950
315.000 3.456501
317.000 3.376052
319.000 3.274088
321.000 3.202058
323.000 3.140318
325.000 3.073901
327.000 3.009355
329.000 2.942937
331.000 2.882133
332.200 2.809167
332.300 2.830683
332.400 2.819457
332.500 2.815716
332.600 2.794200
332.700 2.771749
332.800 2.757717
332.900 2.759588
333.000 2.766137
333.100 2.763330
333.200 2.749298
333.300 2.725912
333.400 2.710945
333.500 2.699719
333.600 2.685688
333.700 2.674462
333.800 2.664172
333.900 2.661366
334.000 2.646399
334.100 2.658559
334.200 2.670720
334.300 2.724977
334.400 2.763330
334.500 2.787652
334.600 2.807297
334.700 2.811038
334.800 2.771749
334.900 2.701590
335.000 2.591207
335.100 2.590271
335.200 2.621141
335.300 2.636109
335.400 2.630496
335.500 2.610851
335.600 2.607109
335.700 2.607109
335.800 2.606174
335.900 2.603368
336.000 2.610851
336.100 2.615529
336.200 2.628625
336.300 2.624883
336.400 2.619270
336.500 2.593078
336.600 2.567820
336.700 2.550047
336.800 2.538821
336.900 2.541628
337.000 2.563143
337.100 2.561272
337.200 2.537886
337.300 2.543499
337.400 2.560337
337.500 2.595884
337.600 2.607109
337.700 2.576239
337.800 2.561272
337.900 2.560337
338.000 2.587465
338.100 2.616464
338.200 2.628625
338.300 2.624883
338.400 2.611787
338.500 2.622077
338.600 2.637979
338.700 2.648269
338.800 2.648269
338.900 2.623948
339.000 2.615529
339.100 2.613658
339.200 2.628625
339.300 2.643592
339.400 2.677268
339.500 2.681946
339.600 2.662301
339.700 2.630496
339.800 2.604303
339.900 2.547240
340.000 2.519177
340.100 2.528531
340.200 2.508887
340.300 2.497661
340.400 2.505145
340.500 2.513564
340.600 2.504210
340.700 2.504210
340.800 2.515435
340.900 2.525725
341.000 2.533209
341.100 2.496726
341.200 2.494855
341.300 2.516370
341.400 2.542563
341.500 2.562208
341.600 2.563143
341.700 2.564079
341.800 2.566885
341.900 2.574369
342.000 2.575304
342.100 2.579046
342.200 2.576239
342.300 2.575304
342.400 2.566885
342.500 2.559401
342.600 2.565014
342.700 2.571562
342.800 2.587465
342.900 2.590271
343.000 2.567820
343.100 2.559401
343.200 2.553789
343.300 2.559401
343.400 2.565014
343.500 2.577175
343.600 2.582788
343.700 2.577175
343.800 2.564079
343.900 2.541628
344.000 2.499532
344.100 2.478952
344.200 2.478952
344.300 2.503274
344.400 2.521983
344.500 2.504210
344.600 2.497661
344.700 2.494855
344.800 2.517306
344.900 2.537886
345.000 2.479888
345.100 2.434051
345.200 2.415341
345.300 2.417212
345.400 2.431244
345.500 2.435921
345.600 2.437792
345.700 2.434986
345.800 2.426567
345.900 2.419083
346.000 2.411600
346.100 2.410664
346.200 2.427502
346.300 2.503274
346.400 2.469598
346.500 2.463985
346.600 2.473340
346.700 2.469598
346.800 2.463050
346.900 2.466791
347.000 2.474275
347.100 2.438728
347.200 2.433115
347.300 2.460243
347.400 2.456501
347.500 2.441534
347.600 2.414406
347.700 2.362021
347.800 2.317119
347.900 2.308700
348.000 2.339570
348.100 2.379794
348.200 2.367633
348.300 2.336763
348.400 2.339570
348.500 2.389149
348.600 2.416277
348.700 2.433115
348.800 2.465856
348.900 2.469598
349.000 2.447147
349.100 2.437792
349.200 2.459308
349.300 2.461179
349.400 2.455566
349.500 2.440599
349.600 2.409729
349.700 2.410664
349.800 2.427502
349.900 2.437792
350.000 2.413471
350.100 2.367633
350.200 2.369504
350.300 2.382601
350.400 2.366698
350.500 2.335828
350.600 2.323667
350.700 2.333022
350.800 2.350795
350.900 2.351731
351.000 2.347989
351.100 2.347989
351.200 2.340505
351.300 2.329280
351.400 2.336763
351.500 2.342376
351.600 2.360150
351.700 2.352666
351.800 2.350795
351.900 2.354537
352.000 2.352666
352.100 2.344247
352.200 2.334892
352.300 2.334892
352.400 2.353601
352.500 2.328344
352.600 2.323667
352.700 2.324602
352.800 2.336763
352.900 2.356408
353.000 2.366698
353.100 2.376052
353.200 2.388213
353.300 2.374181
353.400 2.346118
353.500 2.339570
353.600 2.345182
353.700 2.326473
353.800 2.324602
353.900 2.327409
354.000 2.347989
354.100 2.361085
354.200 2.356408
354.300 2.347053
354.400 2.351731
354.500 2.358279
354.600 2.349860
354.700 2.358279
354.800 2.370440
354.900 2.369504
355.000 2.352666
355.100 2.344247
355.200 2.352666
355.300 2.363891
355.400 2.360150
355.500 2.347989
355.600 2.333022
355.700 2.339570
355.800 2.347053
355.900 2.343312
356.000 2.337699
356.100 2.347053
356.200 2.357343
356.300 2.347989
356.400 2.334892
356.500 2.338634
356.600 2.339570
356.700 2.314312
356.800 2.318990
356.900 2.312442
357.000 2.280636
357.100 2.222638
357.200 2.211413
357.300 2.215154
357.400 2.209542
357.500 2.215154
357.600 2.229186
357.700 2.232928
357.800 2.230122
357.900 2.222638
358.000 2.229186
358.100 2.235734
358.200 2.225444
358.300 2.222638
358.400 2.227315
358.500 2.217961
358.600 2.202058
358.700 2.190833
358.800 2.181478
358.900 2.181478
359.000 2.201123
359.100 2.213283
359.200 2.211413
359.300 2.217025
359.400 2.218896
359.500 2.216090
359.600 2.210477
359.700 2.213283
359.800 2.222638
359.900 2.233863
360.000 2.254443
360.100 2.249766
360.200 2.247895
360.300 2.228251
360.400 2.214219
360.500 2.215154
360.600 2.216090
360.700 2.217961
360.800 2.229186
360.900 2.237605
361.000 2.231057
361.100 2.202058
361.200 2.201123
361.300 2.197381
361.400 2.183349
361.500 2.184284
361.600 2.204864
361.700 2.220767
361.800 2.229186
361.900 2.227315
362.000 2.204864
362.100 2.204864
362.200 2.231993
362.300 2.235734
362.400 2.224509
362.500 2.223573
362.600 2.237605
362.700 2.250702
362.800 2.240412
362.900 2.224509
363.000 2.225444
363.100 2.225444
363.200 2.211413
363.300 2.203929
363.400 2.229186
363.500 2.229186
363.600 2.183349
363.700 2.162769
363.800 2.167446
363.900 2.171188
364.000 2.177736
364.100 2.188962
364.200 2.190833
364.300 2.171188
364.400 2.143124
364.500 2.137512
364.600 2.140318
364.700 2.147802
364.800 2.157156
364.900 2.160898
365.000 2.157156
365.100 2.146866
365.200 2.144995
365.300 2.143124
365.400 2.141254
365.500 2.152479
365.600 2.159963
365.700 2.153414
365.800 2.148737
365.900 2.144060
366.000 2.130964
366.100 2.128157
366.200 2.127222
366.300 2.136576
366.400 2.141254
366.500 2.134705
366.600 2.130964
366.700 2.122544
366.800 2.118803
366.900 2.126286
367.000 2.129093
367.100 2.124415
367.200 2.121609
367.300 2.116932
367.400 2.113190
367.500 2.107577
367.600 2.116932
367.700 2.105706
367.800 2.095416
367.900 2.093545
368.000 2.097287
368.100 2.106642
368.200 2.113190
368.300 2.106642
368.400 2.093545
368.500 2.087933
368.600 2.081384
368.700 2.076707
368.800 2.092610
368.900 2.118803
369.000 2.121609
369.100 2.105706
369.200 2.106642
369.300 2.118803
369.400 2.118803
369.500 2.109448
369.600 2.091674
369.700 2.072030
369.800 2.072030
369.900 2.105706
370.000 2.154350
370.100 2.153414
370.200 2.106642
370.300 2.037418
370.400 1.989710
370.500 1.977549
370.600 2.013096
370.700 2.057063
370.800 2.084191
370.900 2.072030
371.000 2.031805
371.100 1.985968
371.200 1.956969
371.300 1.970065
371.400 2.030870
371.500 2.112254
371.600 2.149673
371.700 2.159027
371.800 2.154350
371.900 2.089804
372.000 1.985033
372.100 1.921422
372.200 1.892423
372.300 1.914874
372.400 1.983162
372.500 2.058934
372.600 2.091674
372.700 2.120674
372.800 2.135641
372.900 2.144995
373.000 2.141254
373.100 2.096352
373.200 2.012161
373.300 1.922357
373.400 1.845650
373.500 1.823199
373.600 1.864359
373.700 1.954163
373.800 2.032741
373.900 2.118803
374.000 2.171188
374.100 2.194574
374.200 2.185220
374.300 2.159027
374.400 2.141254
374.500 2.117867
374.600 2.064546
374.700 1.983162
374.800 1.897100
374.900 1.797007
375.000 1.763330
375.100 1.801684
375.200 1.889616
375.300 1.969130
375.400 2.042095
375.500 2.091674
375.600 2.123480
375.700 2.115061
375.800 2.079514
375.900 2.049579
376.000 2.034612
376.100 2.032741
376.200 2.086997
376.300 2.116932
376.400 2.109448
376.500 2.079514
376.600 2.034612
376.700 1.977549
376.800 1.894294
376.900 1.804490
377.000 1.725912
377.100 1.706268
377.200 1.774556
377.300 1.879326
377.400 1.961646
377.500 2.016838
377.600 2.050514
377.700 2.082320
377.800 2.114125
377.900 2.130028
378.000 2.144995
378.100 2.158092
378.200 2.169317
378.300 2.156221
378.400 2.145931
378.500 2.154350
378.600 2.148737
378.700 2.125351
378.800 2.105706
378.900 2.095416
379.000 2.084191
379.100 2.070159
379.200 2.054256
379.300 2.028064
379.400 1.969130
379.500 1.878391
379.600 1.769878
379.700 1.666043
379.800 1.619270
379.900 1.660430
380.000 1.784846
380.100 1.909261
380.200 1.995323
380.300 2.044902
380.400 2.075772
380.500 2.100094
380.600 2.089804
380.700 2.091674
380.800 2.106642
380.900 2.127222
381.000 2.150608
381.100 2.160898
381.200 2.137512
381.300 2.104771
381.400 2.081384
381.500 2.073901
381.600 2.073901
381.700 2.080449
381.800 2.072965
381.900 2.054256
382.000 2.031805
382.100 2.021515
382.200 2.054256
382.300 2.081384
382.400 2.071094
382.500 2.045837
382.600 2.019645
382.700 2.024322
382.800 2.021515
382.900 1.993452
383.000 1.956034
383.100 1.906455
383.200 1.832554
383.300 1.723106
383.400 1.599626
383.500 1.532273
383.600 1.536950
383.700 1.626754
383.800 1.737138
383.900 1.837231
384.000 1.901777
384.100 1.951356
384.200 1.989710
384.300 2.032741
384.400 2.073901
384.500 2.101964
384.600 2.096352
384.700 2.096352
384.800 2.090739
384.900 2.093545
385.000 2.085126
385.100 2.094481
385.200 2.109448
385.300 2.111319
385.400 2.101964
385.500 2.087933
385.600 2.068288
385.700 2.057998
385.800 2.061740
385.900 2.079514
386.000 2.086997
386.100 2.098223
386.200 2.088868
386.300 2.063611
386.400 2.056127
386.500 2.049579
386.600 2.047708
386.700 2.062675
386.800 2.080449
386.900 2.082320
387.000 2.067353
387.100 2.045837
387.200 2.019645
387.300 2.009355
387.400 2.021515
387.500 2.040225
387.600 2.045837
387.700 2.030870
387.800 2.014967
387.900 2.009355
388.000 2.021515
388.100 2.011225
388.200 1.982226
388.300 1.949486
388.400 1.919551
388.500 1.857811
388.600 1.754911
388.700 1.618335
388.800 1.499532
388.900 1.452760
389.000 1.516370
389.100 1.660430
389.200 1.796071
389.300 1.889616
389.400 1.936389
389.500 1.959775
389.600 1.977549
389.700 1.999065
389.800 2.013096
389.900 2.008419
390.000 2.007484
390.100 2.027128
390.200 2.047708
390.300 2.060804
390.400 2.061740
390.500 2.055192
390.600 2.037418
390.700 2.041160
390.800 2.073901
390.900 2.097287
391.000 2.094481
391.100 2.096352
391.200 2.092610
391.300 2.067353
391.400 2.051450
391.500 2.057063
391.600 2.063611
391.700 2.064546
391.800 2.054256
391.900 2.031805
392.000 2.022451
392.100 2.019645
392.200 2.007484
392.300 1.985033
392.400 1.982226
392.500 1.997194
392.600 1.991581
392.700 1.985033
392.800 1.964453
392.900 1.940131
393.000 1.909261
393.100 1.842844
393.200 1.685688
393.300 1.472404
393.400 1.474275
393.500 1.647334
393.600 1.776427
393.700 1.854069
393.800 1.907390
393.900 1.945744
394.000 1.982226
394.100 2.004677
394.200 2.011225
394.300 2.000935
394.400 1.992516
394.500 1.973807
394.600 1.972872
394.700 1.985968
394.800 1.988775
394.900 1.980355
395.000 1.973807
395.100 1.966324
395.200 1.962582
395.300 1.966324
395.400 1.972872
395.500 1.970065
395.600 1.954163
395.700 1.936389
395.800 1.929841
395.900 1.937325
396.000 1.938260
396.100 1.923293
396.200 1.887746
396.300 1.841908
396.400 1.788587
396.500 1.726848
396.600 1.623012
396.700 1.413471
396.800 1.189897
396.900 1.105706
397.000 1.151543
397.100 1.276894
397.200 1.440599
397.300 1.583723
397.400 1.688494
397.500 1.767072
397.600 1.825070
397.700 1.854069
397.800 1.867166
397.900 1.894294
398.000 1.909261
398.100 1.916745
398.200 1.910196
398.300 1.901777
398.400 1.912067
398.500 1.929841
398.600 1.910196
398.700 1.868101
398.800 1.922357
398.900 1.941066
399.000 1.952292
399.100 1.961646
399.200 1.967259
399.300 1.971936
399.400 1.963517
399.500 1.956969
399.600 1.936389
399.700 1.927035
399.800 1.927970
399.900 1.934518
400.000 1.927970
400.100 1.927035
400.200 1.928906
400.300 1.927970
400.400 1.929841
400.500 1.925164
400.600 1.922357
400.700 1.925164
400.800 1.936389
400.900 1.935454
401.000 1.929841
401.100 1.935454
401.200 1.936389
401.300 1.937325
401.400 1.943873
401.500 1.947615
401.600 1.953227
401.700 1.964453
401.800 1.973807
401.900 1.983162
402.000 1.980355
402.100 1.965388
402.200 1.949486
402.300 1.917680
402.400 1.868101
402.500 1.825070
402.600 1.823199
402.700 1.859682
402.800 1.902713
402.900 1.924228
403.000 1.938260
403.100 1.934518
403.200 1.932647
403.300 1.934518
403.400 1.938260
403.500 1.946679
403.600 1.955098
403.700 1.963517
403.800 1.971001
403.900 1.966324
404.000 1.967259
404.100 1.971936
404.200 1.964453
404.300 1.956034
404.400 1.944808
404.500 1.927970
404.600 1.914874
404.700 1.930776
404.800 1.950421
404.900 1.959775
405.000 1.957905
405.100 1.956969
405.200 1.961646
405.300 1.951356
405.400 1.948550
405.500 1.955098
405.600 1.956969
405.700 1.960711
405.800 1.968195
405.900 1.974743
406.000 1.968195
406.100 1.942002
406.200 1.932647
406.300 1.925164
406.400 1.882133
406.500 1.802619
406.600 1.836296
406.700 1.874649
406.800 1.878391
406.900 1.872778
407.000 1.862488
407.100 1.853134
407.200 1.851263
407.300 1.846586
407.400 1.857811
407.500 1.857811
407.600 1.837231
407.700 1.818522
407.800 1.814780
407.900 1.839102
408.000 1.867166
408.100 1.880262
408.200 1.881197
408.300 1.875585
408.400 1.858746
408.500 1.850327
408.600 1.844715
408.700 1.859682
408.800 1.874649
408.900 1.880262
409.000 1.869036
409.100 1.857811
409.200 1.852198
409.300 1.830683
409.400 1.808232
409.500 1.773620
409.600 1.737138
409.700 1.695042
409.800 1.622077
409.900 1.530402
410.000 1.416277
410.100 1.307764
410.200 1.269411
410.300 1.339570
410.400 1.487371
410.500 1.626754
410.600 1.704397
410.700 1.738073
410.800 1.761459
410.900 1.769878
411.000 1.777362
411.100 1.789523
411.200 1.807297
411.300 1.824135
411.400 1.845650
411.500 1.865295
411.600 1.874649
411.700 1.861553
411.800 1.836296
411.900 1.818522
412.000 1.815716
412.100 1.819457
412.200 1.815716
412.300 1.818522
412.400 1.830683
412.500 1.844715
412.600 1.846586
412.700 1.829747
412.800 1.805426
412.900 1.800748
413.000 1.807297
413.100 1.813845
413.200 1.811974
413.300 1.812909
413.400 1.825070
413.500 1.839102
413.600 1.846586
413.700 1.854069
413.800 1.863424
413.900 1.868101
414.000 1.869036
414.100 1.864359
414.200 1.843779
