# Wavelength (nm)   F_lamA (normalized erg/cm2/s/A)9.100 0.001627
9.400 0.001819
9.600 0.001950
9.800 0.002082
10.000 0.002215
10.200 0.002350
10.400 0.002485
10.600 0.002623
10.800 0.002762
11.000 0.002904
11.400 0.003194
11.800 0.003501
12.100 0.003748
12.500 0.004104
12.700 0.004296
12.800 0.004397
13.100 0.004721
13.200 0.004836
13.400 0.005080
13.700 0.005485
14.000 0.005942
14.300 0.006462
14.700 0.007266
15.100 0.008219
15.500 0.009351
15.900 0.010689
16.200 0.011844
16.600 0.013613
17.000 0.015672
17.300 0.017424
17.700 0.020063
18.000 0.022286
18.200 0.023891
18.600 0.027412
19.100 0.032424
19.400 0.035813
19.800 0.040724
20.200 0.046152
20.500 0.050574
21.000 0.058644
21.600 0.069472
22.000 0.077427
22.300 0.083774
22.700 0.092763
23.000 2.172315
23.400 2.431648
24.000 3.124641
24.600 4.218840
25.200 5.307295
25.700 4.221712
26.000 5.893165
26.400 7.435382
26.900 7.665135
27.400 7.823090
27.900 7.331993
28.400 8.055715
29.000 8.052843
29.600 7.280299
30.100 4.758759
30.800 5.873061
31.800 7.550258
32.800 7.570362
33.800 7.363584
34.800 7.179782
35.700 7.403791
36.600 7.722573
37.500 7.576106
38.500 7.016083
39.500 7.377944
40.500 7.495692
41.400 7.406663
42.200 7.182654
43.000 7.016083
44.100 7.136703
45.100 7.047674
46.000 6.803561
47.000 6.688685
48.000 6.680069
49.000 6.412981
50.000 6.481907
50.600 7.041930
51.200 8.854107
52.000 8.615738
53.000 8.388857
54.000 7.817346
55.000 7.708214
56.000 8.170592
57.000 8.098794
58.000 7.817346
59.000 7.811603
60.000 7.518667
61.000 7.306146
62.000 7.535899
63.000 7.352096
64.000 7.320505
65.000 7.145319
65.800 6.938541
66.500 7.004595
67.500 6.967260
68.500 6.654222
69.500 6.740379
70.500 6.407237
71.600 6.562321
72.600 6.479035
73.500 6.410109
74.500 6.263642
75.500 6.151637
76.500 5.973578
77.500 5.956347
78.500 5.858702
79.500 5.789776
80.500 5.723722
81.500 5.660540
82.500 5.600230
83.500 5.292935
84.500 5.425043
85.500 5.330270
86.500 5.295807
87.500 5.226881
88.500 5.152211
89.500 5.077542
90.500 4.968409
91.500 5.129236
92.500 9.764503
93.500 13.862723
94.500 20.037335
95.500 23.015508
96.500 26.711660
97.500 15.605974
98.500 28.064331
99.500 27.369328
100.500 28.578403
101.500 25.654796
102.500 14.962665
103.500 23.271109
104.500 27.989661
105.500 27.978173
106.500 26.255026
107.500 26.872487
108.500 24.916715
109.500 26.232051
110.500 25.212522
111.500 24.796094
112.500 23.495118
113.500 23.994831
114.500 22.986789
115.500 22.817346
116.500 22.518667
117.500 19.844917
118.500 21.051120
119.500 19.233199
120.500 16.763354
121.500 10.226881
122.500 16.114302
123.500 18.391729
124.500 18.767949
125.500 18.713383
126.500 18.170592
127.500 18.446295
128.500 18.271109
129.500 17.398047
130.500 17.087881
131.500 17.372200
132.500 16.883975
133.500 16.349799
134.500 16.458932
135.500 16.163125
136.500 15.709362
137.500 15.462378
138.500 15.298679
139.500 14.371051
140.500 14.089604
141.500 14.483056
142.500 14.170017
143.500 14.006318
144.200 13.920161
144.700 13.799540
145.500 13.572659
146.500 13.285468
147.500 13.075818
148.500 12.874785
149.500 12.639288
150.500 12.383688
151.200 12.142447
151.700 12.119472
152.500 11.904078
153.500 11.421597
154.500 11.186100
155.500 10.921884
156.500 10.913268
157.500 10.904652
158.500 10.812751
159.500 10.715106
160.500 10.341758
161.500 10.180930
162.500 9.994256
163.500 9.879380
164.500 9.600804
165.500 9.566341
166.500 9.595060
167.200 9.284894
167.700 9.431361
168.500 9.350948
169.500 9.149914
170.500 8.954624
171.500 8.753590
172.500 8.624354
173.500 8.632970
174.500 8.452039
175.500 8.400345
176.500 8.118897
177.500 8.130385
178.500 8.024124
179.500 7.958070
180.500 7.860425
181.500 7.693854
182.500 7.604825
183.500 7.489948
184.500 7.263067
185.500 7.125215
186.500 7.070649
187.500 7.064905
188.500 6.846640
189.500 6.688685
190.500 6.731763
191.500 6.556577
192.500 6.441700
193.500 6.427341
194.500 6.421597
195.500 6.214819
196.700 6.234922
197.600 6.203331
198.400 6.074095
199.500 5.924756
200.500 5.913268
201.500 5.844342
202.500 5.809879
203.500 5.697875
204.500 5.634693
205.500 5.169443
206.500 5.264216
207.400 5.479609
207.800 5.402068
208.500 5.387708
209.500 5.281447
210.500 5.258472
211.500 5.215393
212.500 5.172315
213.500 5.074670
214.500 5.017231
215.500 4.985640
216.500 4.879380
217.500 4.836301
218.500 4.773119
219.500 4.764503
220.500 4.678346
221.500 4.586445
222.500 4.529006
223.500 4.526134
224.500 4.454337
225.500 4.362435
226.500 4.336588
227.500 4.304997
228.500 4.267662
229.500 4.167145
230.500 4.135554
231.500 4.095348
232.500 3.834003
233.500 3.986215
234.500 3.891442
235.500 3.902929
236.500 3.816772
237.500 3.802412
238.500 3.690408
239.500 3.710511
240.500 3.655945
241.500 3.624354
242.500 3.612866
243.500 3.549684
244.500 3.529581
245.500 3.495118
246.500 3.443423
247.500 3.400345
248.500 3.385985
249.500 3.276852
250.500 3.328547
251.300 3.222286
251.800 3.262493
252.500 3.213670
253.500 3.173464
254.500 3.141872
255.500 3.144744
256.500 3.107410
257.500 3.095922
258.500 3.070075
259.500 3.032740
260.500 2.989661
261.500 2.955198
262.500 2.935095
263.500 2.912119
264.500 2.932223
265.500 2.906376
266.500 2.854968
267.500 2.840896
268.500 2.823952
269.500 2.774268
270.500 2.759621
271.500 2.718553
272.500 2.681792
273.500 2.666284
274.500 2.606261
275.500 2.589604
276.500 2.580701
277.500 2.585296
278.500 2.552556
279.500 2.446008
280.500 2.462378
281.500 2.499426
282.500 2.468122
283.500 2.438254
284.500 2.417002
285.500 2.388570
286.500 2.385698
287.500 2.361574
288.500 2.345204
289.500 2.325388
291.000 2.308731
293.000 2.259334
295.000 2.212809
297.000 2.186100
299.000 2.149914
301.000 2.115738
303.000 2.078403
305.000 2.041643
307.000 2.003446
309.000 1.969271
311.000 1.933946
313.000 1.898621
315.000 1.867030
317.000 1.837450
319.000 1.791786
321.000 1.771970
323.000 1.742389
325.000 1.720563
327.000 1.698736
329.000 1.671740
331.000 1.647329
332.200 1.622631
332.300 1.633831
332.400 1.627513
332.500 1.619759
332.600 1.607122
332.700 1.593050
332.800 1.593624
332.900 1.598219
333.000 1.603963
333.100 1.607697
333.200 1.603102
333.300 1.593912
333.400 1.581850
333.500 1.573521
333.600 1.561746
333.700 1.549110
333.800 1.544515
333.900 1.544515
334.000 1.538196
334.100 1.544515
334.200 1.549110
334.300 1.574383
334.400 1.596209
334.500 1.607122
334.600 1.616312
334.700 1.616025
334.800 1.592476
334.900 1.554279
335.000 1.505744
335.100 1.504021
335.200 1.526709
335.300 1.539920
335.400 1.539058
335.500 1.524698
335.600 1.521539
335.700 1.527283
335.800 1.526709
335.900 1.521539
336.000 1.517806
336.100 1.511200
336.200 1.521252
336.300 1.523550
336.400 1.524124
336.500 1.511488
336.600 1.496267
336.700 1.484492
336.800 1.478461
336.900 1.484204
337.000 1.500287
337.100 1.502585
337.200 1.483630
337.300 1.478173
337.400 1.486789
337.500 1.513498
337.600 1.528145
337.700 1.509765
337.800 1.494831
337.900 1.487364
338.000 1.497990
338.100 1.514934
338.200 1.530442
338.300 1.540781
338.400 1.537909
338.500 1.539345
338.600 1.537622
338.700 1.531591
338.800 1.528719
338.900 1.528432
339.000 1.534463
339.100 1.542217
339.200 1.544515
339.300 1.541356
339.400 1.549397
339.500 1.554279
339.600 1.558874
339.700 1.550833
339.800 1.539920
339.900 1.508616
340.000 1.481907
340.100 1.485640
340.200 1.474440
340.300 1.473291
340.400 1.473866
340.500 1.478173
340.600 1.469558
340.700 1.469845
340.800 1.481045
340.900 1.486789
341.000 1.488800
341.100 1.473866
341.200 1.478173
341.300 1.495405
341.400 1.510339
341.500 1.511488
341.600 1.508329
341.700 1.508041
341.800 1.515796
341.900 1.523550
342.000 1.523262
342.100 1.519816
342.200 1.510913
342.300 1.508329
342.400 1.508041
342.500 1.504882
342.600 1.508903
342.700 1.513498
342.800 1.520965
342.900 1.526422
343.000 1.514072
343.100 1.508329
343.200 1.504308
343.300 1.506605
343.400 1.512349
343.500 1.515796
343.600 1.518955
343.700 1.517519
343.800 1.515221
343.900 1.505744
344.000 1.485928
344.100 1.469271
344.200 1.464101
344.300 1.468409
344.400 1.471855
344.500 1.473578
344.600 1.482769
344.700 1.493107
344.800 1.510913
344.900 1.522114
345.000 1.488800
345.100 1.451465
345.200 1.434233
345.300 1.427628
345.400 1.435956
345.500 1.436244
345.600 1.436244
345.700 1.437679
345.800 1.431936
345.900 1.429638
346.000 1.425043
346.100 1.423033
346.200 1.429638
346.300 1.453762
346.400 1.445146
346.500 1.442562
346.600 1.444572
346.700 1.445721
346.800 1.443423
346.900 1.445146
347.000 1.454911
347.100 1.452326
347.200 1.445434
347.300 1.436531
347.400 1.433946
347.500 1.429064
347.600 1.428489
347.700 1.420448
347.800 1.408386
347.900 1.400919
348.000 1.408960
348.100 1.419586
348.200 1.412119
348.300 1.400345
348.400 1.401493
348.500 1.423894
348.600 1.442275
348.700 1.450890
348.800 1.457209
348.900 1.451465
349.000 1.441126
349.100 1.438541
349.200 1.448880
349.300 1.452326
349.400 1.444285
349.500 1.430213
349.600 1.422171
349.700 1.428489
349.800 1.438254
349.900 1.437392
350.000 1.414417
350.100 1.401781
350.200 1.408960
350.300 1.412407
350.400 1.403217
350.500 1.388857
350.600 1.381964
350.700 1.384262
350.800 1.392303
350.900 1.397473
351.000 1.402929
351.100 1.404078
351.200 1.399196
351.300 1.387708
351.400 1.382539
351.500 1.390006
351.600 1.400057
351.700 1.404365
351.800 1.408386
351.900 1.408673
352.000 1.408099
352.100 1.403791
352.200 1.397760
352.300 1.398909
352.400 1.403504
352.500 1.401493
352.600 1.402929
352.700 1.402068
352.800 1.404652
352.900 1.411832
353.000 1.419012
353.100 1.425043
353.200 1.431361
353.300 1.425330
353.400 1.410684
353.500 1.404652
353.600 1.404652
353.700 1.401206
353.800 1.403791
353.900 1.406663
354.000 1.411545
354.100 1.412694
354.200 1.412694
354.300 1.414417
354.400 1.418438
354.500 1.419586
354.600 1.419874
354.700 1.423320
354.800 1.426766
354.900 1.423607
355.000 1.419299
355.100 1.419012
355.200 1.422171
355.300 1.421310
355.400 1.412407
355.500 1.407812
355.600 1.409822
355.700 1.417002
355.800 1.419012
355.900 1.413843
356.000 1.406088
356.100 1.410396
356.200 1.416715
356.300 1.414417
356.400 1.403504
356.500 1.392016
356.600 1.390293
356.700 1.389144
356.800 1.395175
356.900 1.391729
357.000 1.377369
357.100 1.348650
357.200 1.331132
357.300 1.329696
357.400 1.329983
357.500 1.331993
357.600 1.339173
357.700 1.339747
357.800 1.336301
357.900 1.331993
358.000 1.332567
358.100 1.334003
358.200 1.331993
358.300 1.329408
358.400 1.326536
358.500 1.320793
358.600 1.312751
358.700 1.307869
358.800 1.304710
358.900 1.312177
359.000 1.323090
359.100 1.326249
359.200 1.323090
359.300 1.322803
359.400 1.324239
359.500 1.327398
359.600 1.329696
359.700 1.333716
359.800 1.338024
359.900 1.340322
360.000 1.342906
360.100 1.338024
360.200 1.339460
360.300 1.335152
360.400 1.330844
360.500 1.330557
360.600 1.333142
360.700 1.334578
360.800 1.337163
360.900 1.341470
361.000 1.344055
361.100 1.340609
361.200 1.338024
361.300 1.334003
361.400 1.332567
361.500 1.334003
361.600 1.339460
361.700 1.344917
361.800 1.350086
361.900 1.353820
362.000 1.349225
362.100 1.348363
362.200 1.359851
362.300 1.365307
362.400 1.362148
362.500 1.364446
362.600 1.371626
362.700 1.379380
362.800 1.379092
362.900 1.369328
363.000 1.359851
363.100 1.354394
363.200 1.353245
363.300 1.358989
363.400 1.372200
363.500 1.370764
363.600 1.346640
363.700 1.334291
363.800 1.336875
363.900 1.340896
364.000 1.342619
364.100 1.342619
364.200 1.340609
364.300 1.334291
364.400 1.328260
364.500 1.329696
364.600 1.325388
364.700 1.324813
364.800 1.326536
364.900 1.327398
365.000 1.329696
365.100 1.328834
365.200 1.329983
365.300 1.332280
365.400 1.333429
365.500 1.332567
365.600 1.334865
365.700 1.333429
365.800 1.332280
365.900 1.329408
366.000 1.320793
366.100 1.316772
366.200 1.312751
366.300 1.317059
366.400 1.321080
366.500 1.319070
366.600 1.317346
366.700 1.311028
366.800 1.308156
366.900 1.311028
367.000 1.315623
367.100 1.316772
367.200 1.317634
367.300 1.313613
367.400 1.309018
367.500 1.299828
367.600 1.293797
367.700 1.289202
367.800 1.286617
367.900 1.289489
368.000 1.293797
368.100 1.301551
368.200 1.298966
368.300 1.294945
368.400 1.294658
368.500 1.289202
368.600 1.277714
368.700 1.277427
368.800 1.296669
368.900 1.322229
369.000 1.323090
369.100 1.298392
369.200 1.297530
369.300 1.316198
369.400 1.339460
369.500 1.339747
369.600 1.303848
369.700 1.283745
369.800 1.289202
369.900 1.334865
370.000 1.385411
370.100 1.392016
370.200 1.350086
370.300 1.265365
370.400 1.223435
370.500 1.220563
370.600 1.279724
370.700 1.342619
370.800 1.394314
370.900 1.373923
371.000 1.307869
371.100 1.239518
371.200 1.199598
371.300 1.222286
371.400 1.290063
371.500 1.400919
371.600 1.467547
371.700 1.506031
371.800 1.494831
371.900 1.425043
372.000 1.295807
372.100 1.217117
372.200 1.167433
372.300 1.202757
372.400 1.292074
372.500 1.411258
372.600 1.478173
372.700 1.546812
372.800 1.574383
372.900 1.579839
373.000 1.554566
373.100 1.481620
373.200 1.350948
373.300 1.242389
373.400 1.145319
373.500 1.128087
373.600 1.184951
373.700 1.311890
373.800 1.420735
373.900 1.553130
374.000 1.624067
374.100 1.673176
374.200 1.687823
374.300 1.677484
374.400 1.649052
374.500 1.602814
374.600 1.520678
374.700 1.412119
374.800 1.296381
374.900 1.157955
375.000 1.109420
375.100 1.128949
375.200 1.223148
375.300 1.340322
375.400 1.473578
375.500 1.553130
375.600 1.630959
375.700 1.658242
375.800 1.670017
375.900 1.666858
376.000 1.659104
376.100 1.659104
376.200 1.679495
376.300 1.677771
376.400 1.656232
376.500 1.605974
376.600 1.530155
376.700 1.450890
376.800 1.327398
376.900 1.199024
377.000 1.100517
377.100 1.061172
377.200 1.128087
377.300 1.258759
377.400 1.372200
377.500 1.484204
377.600 1.572085
377.700 1.640724
377.800 1.709937
377.900 1.752154
378.000 1.794945
378.100 1.817059
378.200 1.832855
378.300 1.835727
378.400 1.836875
378.500 1.838599
378.600 1.830270
378.700 1.813900
378.800 1.796956
378.900 1.772832
379.000 1.737507
379.100 1.697300
379.200 1.635554
379.300 1.563756
379.400 1.475589
379.500 1.342045
379.600 1.218265
379.700 1.090465
379.800 1.030155
379.900 1.065767
380.000 1.192705
380.100 1.317921
380.200 1.456634
380.300 1.544802
380.400 1.624067
380.500 1.683515
380.600 1.719127
380.700 1.759621
380.800 1.792648
380.900 1.829696
381.000 1.858989
381.100 1.876221
381.200 1.870764
381.300 1.856404
381.400 1.842332
381.500 1.844630
381.600 1.844917
381.700 1.839747
381.800 1.823952
381.900 1.793509
382.000 1.773119
382.100 1.770534
382.200 1.792648
382.300 1.797243
382.400 1.779724
382.500 1.751005
382.600 1.712522
382.700 1.685238
382.800 1.645319
382.900 1.589316
383.000 1.529581
383.100 1.441700
383.200 1.348076
383.300 1.222286
383.400 1.071798
383.500 1.003733
383.600 0.994543
383.700 1.070649
383.800 1.188972
383.900 1.316772
384.000 1.415566
384.100 1.522114
384.200 1.591614
384.300 1.666571
384.400 1.714245
384.500 1.755887
384.600 1.788340
384.700 1.809879
384.800 1.826536
384.900 1.835152
385.000 1.844917
385.100 1.863871
385.200 1.875933
385.300 1.878805
385.400 1.871913
385.500 1.862723
385.600 1.855830
385.700 1.860138
385.800 1.876795
385.900 1.893452
386.000 1.902068
386.100 1.900057
386.200 1.883113
386.300 1.848650
386.400 1.845204
386.500 1.848650
386.600 1.852958
386.700 1.862148
386.800 1.867892
386.900 1.867605
387.000 1.857266
387.100 1.838886
387.200 1.816772
387.300 1.808443
387.400 1.811603
387.500 1.815910
387.600 1.803561
387.700 1.777140
387.800 1.754739
387.900 1.730327
388.000 1.709362
388.100 1.676335
388.200 1.622343
388.300 1.569500
388.400 1.498564
388.500 1.406950
388.600 1.296094
388.700 1.143883
388.800 1.029006
388.900 0.968122
389.000 1.005169
389.100 1.115164
389.200 1.265365
389.300 1.373636
389.400 1.474153
389.500 1.541356
389.600 1.604538
389.700 1.658817
389.800 1.690695
389.900 1.717117
390.000 1.736646
390.100 1.764503
390.200 1.795520
390.300 1.817059
390.400 1.827111
390.500 1.829121
390.600 1.831706
390.700 1.847501
390.800 1.875359
390.900 1.901781
391.000 1.911258
391.100 1.915566
391.200 1.908960
391.300 1.893452
391.400 1.881103
391.500 1.883688
391.600 1.896324
391.700 1.903504
391.800 1.903217
391.900 1.894026
392.000 1.893165
392.100 1.894888
392.200 1.890867
392.300 1.882539
392.400 1.878518
392.500 1.882252
392.600 1.876508
392.700 1.872774
392.800 1.859563
392.900 1.844917
393.000 1.827398
393.100 1.779437
393.200 1.684377
393.300 1.562321
393.400 1.537048
393.500 1.605974
393.600 1.717404
393.700 1.791786
393.800 1.837163
393.900 1.860999
394.000 1.879667
394.100 1.891729
394.200 1.892878
394.300 1.881677
394.400 1.868754
394.500 1.852096
394.600 1.844055
394.700 1.844917
394.800 1.843768
394.900 1.838311
395.000 1.829696
395.100 1.818782
395.200 1.808443
395.300 1.804997
395.400 1.801264
395.500 1.786043
395.600 1.766801
395.700 1.746123
395.800 1.733199
395.900 1.715393
396.000 1.682654
396.100 1.645032
396.200 1.593624
396.300 1.547387
396.400 1.481620
396.500 1.398621
396.600 1.293222
396.700 1.125790
396.800 0.972142
396.900 0.863010
397.000 0.839173
397.100 0.904940
397.200 1.035899
397.300 1.161976
397.400 1.293222
397.500 1.388283
397.600 1.468409
397.700 1.534463
397.800 1.572947
397.900 1.620333
398.000 1.650201
398.100 1.678633
398.200 1.699885
398.300 1.716542
398.400 1.738656
398.500 1.757036
398.600 1.766513
398.700 1.765652
398.800 1.785468
398.900 1.795520
399.000 1.806146
399.100 1.814762
399.200 1.818208
399.300 1.823377
399.400 1.824813
399.500 1.828547
399.600 1.825388
399.700 1.823952
399.800 1.824813
399.900 1.829121
400.000 1.821941
400.100 1.812464
400.200 1.810167
400.300 1.805572
400.400 1.805572
400.500 1.806433
400.600 1.808156
400.700 1.809018
400.800 1.811603
400.900 1.809305
401.000 1.808156
401.100 1.812751
401.200 1.819070
401.300 1.823952
401.400 1.825388
401.500 1.829408
401.600 1.838024
401.700 1.847501
401.800 1.855256
401.900 1.858989
402.000 1.858128
402.100 1.851522
402.200 1.840322
402.300 1.815336
402.400 1.781447
402.500 1.751580
402.600 1.744113
402.700 1.761918
402.800 1.789776
402.900 1.811603
403.000 1.829408
403.100 1.835152
403.200 1.839747
403.300 1.841183
403.400 1.843768
403.500 1.851235
403.600 1.855830
403.700 1.858702
403.800 1.860138
403.900 1.857553
404.000 1.857266
404.100 1.856404
404.200 1.851235
404.300 1.845204
404.400 1.832280
404.500 1.818495
404.600 1.811603
404.700 1.820505
404.800 1.833429
404.900 1.842906
405.000 1.844630
405.100 1.842906
405.200 1.838886
405.300 1.830270
405.400 1.825962
405.500 1.830844
405.600 1.834865
405.700 1.836588
405.800 1.836014
405.900 1.837737
406.000 1.837450
406.100 1.827972
406.200 1.815623
406.300 1.805284
406.400 1.787478
406.500 1.750144
406.600 1.747559
406.700 1.754451
406.800 1.753303
406.900 1.751292
407.000 1.743251
407.100 1.729466
407.200 1.722860
407.300 1.720563
407.400 1.724009
407.500 1.721999
407.600 1.708214
407.700 1.697300
407.800 1.691269
407.900 1.698736
408.000 1.710224
408.100 1.715106
408.200 1.712234
408.300 1.702757
408.400 1.689546
408.500 1.676910
408.600 1.663986
408.700 1.657955
408.800 1.649339
408.900 1.640724
409.000 1.622056
409.100 1.603676
409.200 1.581850
409.300 1.545663
409.400 1.508616
409.500 1.453475
409.600 1.394601
409.700 1.327972
409.800 1.235497
409.900 1.134118
410.000 1.009477
410.100 0.907812
410.200 0.878805
410.300 0.937967
410.400 1.051407
410.500 1.181792
410.600 1.272545
410.700 1.348363
410.800 1.407524
410.900 1.449454
411.000 1.490235
411.100 1.521252
411.200 1.553418
411.300 1.576967
411.400 1.599368
411.500 1.620046
411.600 1.636703
411.700 1.642734
411.800 1.640149
411.900 1.639288
412.000 1.639575
412.100 1.645606
412.200 1.652499
412.300 1.662263
412.400 1.674899
412.500 1.686100
412.600 1.679207
412.700 1.662837
412.800 1.650201
412.900 1.644170
413.000 1.644744
413.100 1.652499
413.200 1.661401
413.300 1.674325
413.400 1.693280
413.500 1.703331
413.600 1.709937
413.700 1.713096
413.800 1.718840
413.900 1.723148
414.000 1.723435
414.100 1.715681
414.200 1.699598
414.300 1.684377
414.400 1.676335
414.500 1.684664
414.600 1.699311
414.700 1.709937
414.800 1.712234
414.900 1.711660
415.000 1.715106
415.100 1.719701
