# Wavelength (nm)   F_lamA (normalized erg/cm2/s/A)9.100 0.000001
9.400 0.000002
9.600 0.000003
9.800 0.000006
10.000 0.000009
10.200 0.000013
10.400 0.000020
10.600 0.000029
10.800 0.000042
11.000 0.000060
11.400 0.000117
11.800 0.000218
12.100 0.000337
12.500 0.000579
12.700 0.000749
12.800 0.000849
13.100 0.001218
13.200 0.001369
13.400 0.001718
13.700 0.002380
14.000 0.003246
14.300 0.004358
14.700 0.006320
15.100 0.008956
15.500 0.012429
15.900 0.016911
16.200 0.021057
16.600 0.027802
17.000 0.036125
17.300 0.043562
17.700 0.055236
18.000 0.065454
18.200 0.073024
18.600 0.090098
19.100 0.115424
19.400 0.132844
19.800 0.159026
20.200 0.188672
20.500 0.213325
21.000 0.259169
21.600 0.322535
22.000 0.370008
22.300 0.408415
22.700 0.463529
23.000 15.281174
23.400 16.829666
24.000 21.729829
24.600 29.726976
25.200 36.338631
25.700 28.096985
26.000 40.158924
26.400 50.713121
26.900 51.609617
27.400 52.404238
27.900 50.387123
28.400 53.015485
29.000 52.750611
29.600 48.482070
30.100 33.588020
30.800 41.758354
31.800 51.996740
32.800 52.129177
33.800 51.100244
34.800 50.162999
35.700 50.886308
36.600 51.477180
37.500 50.621434
38.500 47.911573
39.500 49.134067
40.500 49.205379
41.400 48.543195
42.200 47.310513
43.000 46.515892
44.100 46.577017
45.100 45.792584
46.000 44.539527
47.000 43.755094
48.000 43.357783
49.000 41.982478
50.000 41.870416
50.600 45.028525
51.200 53.331296
52.000 52.292176
53.000 51.344743
54.000 48.655257
55.000 48.054197
56.000 49.327628
57.000 48.675632
58.000 47.157702
59.000 46.933578
60.000 45.548085
61.000 44.254279
62.000 44.702526
63.000 43.734719
64.000 43.276284
65.000 42.288101
65.800 41.228606
66.500 41.289731
67.500 40.841483
68.500 39.354116
69.500 39.415240
70.500 37.887123
71.600 38.090872
72.600 37.520375
73.500 37.011002
74.500 36.196007
75.500 35.523635
76.500 34.627139
77.500 34.301141
78.500 33.689894
79.500 33.170334
80.500 32.722086
81.500 32.243276
82.500 31.805216
83.500 30.460473
84.500 30.725346
85.500 30.154849
86.500 29.828851
87.500 29.370416
88.500 28.891606
89.500 28.412795
90.500 27.760799
91.500 29.513040
92.500 49.062755
93.500 65.281174
94.500 87.123064
95.500 92.991035
96.500 104.523227
97.500 71.882641
98.500 101.599430
99.500 95.323961
100.500 98.624694
101.500 94.580277
102.500 66.717604
103.500 88.895681
104.500 92.440913
105.500 90.433985
106.500 86.114507
107.500 85.370823
108.500 79.625102
109.500 82.487775
110.500 79.808476
111.500 78.096985
112.500 74.684189
113.500 74.979625
114.500 72.748574
115.500 71.301956
116.500 69.855338
117.500 63.141809
118.500 66.218419
119.500 64.180929
120.500 60.920945
121.500 44.651589
122.500 58.689894
123.500 59.270579
124.500 58.027710
125.500 57.375713
126.500 56.173594
127.500 55.226161
128.500 54.105542
129.500 52.200489
130.500 51.314181
131.500 50.794621
132.500 49.470253
133.500 48.176447
134.500 47.656887
135.500 46.719641
136.500 45.619397
137.500 44.621027
138.500 43.826406
139.500 41.208231
140.500 39.995925
141.500 41.248981
142.500 40.240424
143.500 39.649552
144.200 39.109617
144.700 38.702119
145.500 38.050122
146.500 37.306438
147.500 36.603504
148.500 35.961695
149.500 35.218011
150.500 34.494703
151.200 34.005705
151.700 33.689894
152.500 33.129584
153.500 32.059902
154.500 30.847596
155.500 30.368786
156.500 30.389161
157.500 30.032600
158.500 29.584352
159.500 29.054605
160.500 28.188672
161.500 27.669112
162.500 27.210676
163.500 26.568867
164.500 25.438060
165.500 25.988183
166.500 25.570497
167.200 25.091687
167.700 25.183374
168.500 24.796251
169.500 24.327628
170.500 23.859006
171.500 23.247759
172.500 22.921760
173.500 22.718011
174.500 22.279951
175.500 21.903015
176.500 21.485330
177.500 21.179707
178.500 20.863896
179.500 20.517522
180.500 20.211899
181.500 19.834963
182.500 19.508965
183.500 19.203341
184.500 18.755094
185.500 18.378158
186.500 18.143847
187.500 17.940098
188.500 17.502037
189.500 17.145477
190.500 17.033415
191.500 16.656479
192.500 16.340668
193.500 16.208231
194.500 16.024857
195.500 15.607172
196.700 15.464548
197.600 15.301548
198.400 15.046862
199.500 14.710676
200.500 14.588427
201.500 14.405053
202.500 14.211491
203.500 13.946618
204.500 13.732681
205.500 11.949878
206.500 12.316626
207.400 13.202934
207.800 13.121434
208.500 13.019560
209.500 12.815811
210.500 12.673187
211.500 12.540750
212.500 12.367563
213.500 12.174002
214.500 11.980440
215.500 11.878566
216.500 11.634067
217.500 11.532192
218.500 11.297881
219.500 11.226569
220.500 11.053382
221.500 10.819071
222.500 10.737571
223.500 10.594947
224.500 10.442135
225.500 10.207824
226.500 10.150774
227.500 10.013244
228.500 9.875713
229.500 9.658720
230.500 9.511002
231.500 9.468215
232.500 9.145273
233.500 9.202323
234.500 9.070905
235.500 8.963936
236.500 8.830481
237.500 8.718419
238.500 8.492258
239.500 8.479014
240.500 8.368989
241.500 8.258965
242.500 8.163203
243.500 8.052160
244.500 7.950285
245.500 7.848411
246.500 7.744499
247.500 7.642624
248.500 7.545844
249.500 7.308476
250.500 7.350244
251.300 7.057865
251.800 7.219845
252.500 7.159739
253.500 7.069071
254.500 6.975346
255.500 6.900978
256.500 6.813366
257.500 6.733904
258.500 6.648329
259.500 6.562755
260.500 6.481255
261.500 6.397718
262.500 6.328443
263.500 6.255094
264.500 6.204156
265.500 6.128769
266.500 6.044214
267.500 5.973920
268.500 5.920945
269.500 5.824165
270.500 5.776284
271.500 5.701915
272.500 5.612266
273.500 5.502241
274.500 5.484923
275.500 5.427873
276.500 5.350448
277.500 5.320905
278.500 5.251630
279.500 5.144662
280.500 5.100856
281.500 5.082518
282.500 5.008150
283.500 4.960269
284.500 4.914425
285.500 4.853301
286.500 4.808476
287.500 4.754482
288.500 4.703545
289.500 4.650570
291.000 4.583333
293.000 4.481459
295.000 4.367359
297.000 4.292991
299.000 4.203341
301.000 4.097392
303.000 3.994499
305.000 3.894662
307.000 3.798900
309.000 3.706194
311.000 3.614507
313.000 3.525876
315.000 3.445395
317.000 3.364914
319.000 3.263040
321.000 3.188672
323.000 3.128566
325.000 3.062347
327.000 2.998166
329.000 2.931948
331.000 2.871842
332.200 2.791361
332.300 2.810717
332.400 2.801548
332.500 2.798492
332.600 2.777099
332.700 2.752649
332.800 2.738386
332.900 2.740424
333.000 2.747555
333.100 2.744499
333.200 2.732274
333.300 2.709861
333.400 2.694580
333.500 2.683374
333.600 2.667074
333.700 2.657905
333.800 2.650774
333.900 2.649756
334.000 2.633456
334.100 2.642624
334.200 2.652812
334.300 2.707824
334.400 2.747555
334.500 2.770986
334.600 2.789324
334.700 2.791361
334.800 2.752649
334.900 2.686430
335.000 2.579462
335.100 2.576406
335.200 2.605949
335.300 2.619193
335.400 2.614099
335.500 2.595762
335.600 2.591687
335.700 2.590668
335.800 2.587612
335.900 2.582518
336.000 2.586593
336.100 2.593725
336.200 2.607987
336.300 2.606968
336.400 2.603912
336.500 2.577425
336.600 2.551956
336.700 2.534637
336.800 2.523431
336.900 2.524450
337.000 2.542787
337.100 2.540750
337.200 2.518337
337.300 2.526487
337.400 2.544825
337.500 2.578443
337.600 2.588631
337.700 2.560106
337.800 2.545844
337.900 2.546862
338.000 2.572331
338.100 2.599837
338.200 2.610024
338.300 2.606968
338.400 2.593725
338.500 2.604931
338.600 2.622249
338.700 2.633456
338.800 2.634474
338.900 2.609006
339.000 2.598818
339.100 2.596781
339.200 2.612062
339.300 2.626324
339.400 2.661980
339.500 2.667074
339.600 2.647718
339.700 2.617156
339.800 2.591687
339.900 2.534637
340.000 2.505094
340.100 2.512225
340.200 2.493888
340.300 2.482681
340.400 2.491850
340.500 2.501019
340.600 2.491850
340.700 2.489813
340.800 2.498981
340.900 2.508150
341.000 2.516300
341.100 2.482681
341.200 2.480644
341.300 2.500000
341.400 2.525469
341.500 2.544825
341.600 2.545844
341.700 2.547881
341.800 2.549919
341.900 2.557050
342.000 2.559087
342.100 2.563162
342.200 2.561125
342.300 2.560106
342.400 2.551956
342.500 2.543806
342.600 2.548900
342.700 2.555012
342.800 2.571312
342.900 2.575387
343.000 2.553993
343.100 2.544825
343.200 2.537694
343.300 2.540750
343.400 2.547881
343.500 2.561125
343.600 2.568256
343.700 2.562143
343.800 2.546862
343.900 2.522412
344.000 2.480644
344.100 2.461288
344.200 2.461288
344.300 2.484719
344.400 2.505094
344.500 2.486756
344.600 2.480644
344.700 2.478606
344.800 2.501019
344.900 2.521394
345.000 2.465363
345.100 2.419519
345.200 2.402200
345.300 2.403219
345.400 2.417482
345.500 2.422575
345.600 2.424613
345.700 2.421557
345.800 2.412388
345.900 2.404238
346.000 2.396088
346.100 2.395069
346.200 2.413407
346.300 2.491850
346.400 2.458231
346.500 2.451100
346.600 2.460269
346.700 2.456194
346.800 2.450081
346.900 2.455175
347.000 2.462306
347.100 2.424613
347.200 2.419519
347.300 2.447025
347.400 2.441932
347.500 2.425632
347.600 2.398126
347.700 2.346170
347.800 2.302363
347.900 2.295232
348.000 2.328851
348.100 2.368582
348.200 2.357376
348.300 2.326813
348.400 2.329870
348.500 2.378769
348.600 2.404238
348.700 2.421557
348.800 2.452119
348.900 2.455175
349.000 2.432763
349.100 2.422575
349.200 2.443969
349.300 2.446007
349.400 2.441932
349.500 2.425632
349.600 2.392013
349.700 2.393032
349.800 2.410350
349.900 2.424613
350.000 2.403219
350.100 2.355338
350.200 2.356357
350.300 2.368582
350.400 2.354319
350.500 2.323757
350.600 2.311532
350.700 2.320701
350.800 2.337001
350.900 2.338020
351.000 2.333945
351.100 2.331907
351.200 2.324776
351.300 2.313570
351.400 2.322738
351.500 2.327832
351.600 2.345151
351.700 2.338020
351.800 2.337001
351.900 2.341076
352.000 2.338020
352.100 2.328851
352.200 2.321720
352.300 2.319682
352.400 2.338020
352.500 2.310513
352.600 2.307457
352.700 2.308476
352.800 2.321720
352.900 2.342095
353.000 2.351263
353.100 2.360432
353.200 2.373676
353.300 2.359413
353.400 2.330888
353.500 2.324776
353.600 2.329870
353.700 2.311532
353.800 2.310513
353.900 2.313570
354.000 2.334963
354.100 2.349226
354.200 2.343113
354.300 2.332926
354.400 2.337001
354.500 2.343113
354.600 2.334963
354.700 2.343113
354.800 2.356357
354.900 2.355338
355.000 2.338020
355.100 2.328851
355.200 2.335982
355.300 2.348207
355.400 2.345151
355.500 2.331907
355.600 2.317645
355.700 2.324776
355.800 2.332926
355.900 2.329870
356.000 2.323757
356.100 2.333945
356.200 2.343113
356.300 2.333945
356.400 2.321720
356.500 2.325795
356.600 2.326813
356.700 2.299307
356.800 2.304401
356.900 2.297270
357.000 2.265689
357.100 2.208639
357.200 2.198452
357.300 2.202526
357.400 2.196414
357.500 2.201508
357.600 2.215770
357.700 2.218826
357.800 2.217808
357.900 2.209658
358.000 2.216789
358.100 2.221883
358.200 2.211695
358.300 2.209658
358.400 2.214751
358.500 2.204564
358.600 2.187245
358.700 2.176039
358.800 2.166870
358.900 2.165852
359.000 2.187245
359.100 2.200489
359.200 2.199470
359.300 2.205583
359.400 2.207620
359.500 2.203545
359.600 2.197433
359.700 2.201508
359.800 2.209658
359.900 2.221883
360.000 2.244295
360.100 2.238183
360.200 2.235126
360.300 2.213733
360.400 2.199470
360.500 2.201508
360.600 2.203545
360.700 2.205583
360.800 2.215770
360.900 2.223920
361.000 2.215770
361.100 2.185208
361.200 2.186227
361.300 2.182152
361.400 2.167889
361.500 2.169927
361.600 2.192339
361.700 2.209658
361.800 2.215770
361.900 2.211695
362.000 2.188264
362.100 2.188264
362.200 2.217808
362.300 2.220864
362.400 2.209658
362.500 2.208639
362.600 2.222901
362.700 2.236145
362.800 2.225958
362.900 2.209658
363.000 2.210676
363.100 2.209658
363.200 2.194377
363.300 2.186227
363.400 2.210676
363.500 2.212714
363.600 2.167889
363.700 2.147514
363.800 2.153627
363.900 2.156683
364.000 2.162795
364.100 2.175020
364.200 2.176039
364.300 2.153627
364.400 2.125102
364.500 2.120008
364.600 2.125102
364.700 2.132233
364.800 2.141402
364.900 2.145477
365.000 2.142421
365.100 2.132233
365.200 2.130196
365.300 2.129177
365.400 2.127139
365.500 2.138346
365.600 2.145477
365.700 2.139364
365.800 2.136308
365.900 2.131214
366.000 2.118989
366.100 2.114914
366.200 2.113896
366.300 2.123064
366.400 2.128158
366.500 2.122046
366.600 2.116952
366.700 2.109821
366.800 2.105746
366.900 2.111858
367.000 2.114914
367.100 2.109821
367.200 2.107783
367.300 2.104727
367.400 2.100652
367.500 2.096577
367.600 2.104727
367.700 2.092502
367.800 2.082315
367.900 2.080277
368.000 2.084352
368.100 2.094540
368.200 2.101671
368.300 2.094540
368.400 2.080277
368.500 2.075183
368.600 2.069071
368.700 2.064996
368.800 2.080277
368.900 2.105746
369.000 2.110839
369.100 2.096577
369.200 2.097596
369.300 2.107783
369.400 2.104727
369.500 2.095558
369.600 2.080277
369.700 2.061940
369.800 2.061940
369.900 2.094540
370.000 2.142421
370.100 2.140383
370.200 2.094540
370.300 2.029340
370.400 1.981459
370.500 1.967196
370.600 1.998778
370.700 2.040546
370.800 2.066015
370.900 2.055827
371.000 2.018134
371.100 1.976365
371.200 1.948859
371.300 1.961084
371.400 2.020171
371.500 2.097596
371.600 2.131214
371.700 2.139364
371.800 2.135289
371.900 2.073146
372.000 1.972290
372.100 1.910147
372.200 1.882641
372.300 1.903015
372.400 1.968215
372.500 2.041565
372.600 2.073146
372.700 2.097596
372.800 2.111858
372.900 2.121027
373.000 2.120008
373.100 2.078240
373.200 1.997759
373.300 1.912184
373.400 1.836797
373.500 1.813366
373.600 1.851059
373.700 1.935615
373.800 2.012021
373.900 2.094540
374.000 2.145477
374.100 2.167889
374.200 2.156683
374.300 2.129177
374.400 2.112877
374.500 2.090465
374.600 2.039527
374.700 1.961084
374.800 1.879584
374.900 1.784841
375.000 1.752241
375.100 1.791972
375.200 1.877547
375.300 1.954971
375.400 2.023227
375.500 2.071108
375.600 2.099633
375.700 2.088427
375.800 2.049715
375.900 2.018134
376.000 2.002852
376.100 2.001834
376.200 2.055827
376.300 2.088427
376.400 2.082315
376.500 2.054808
376.600 2.012021
376.700 1.957009
376.800 1.879584
376.900 1.795029
377.000 1.719641
377.100 1.702323
377.200 1.767522
377.300 1.867359
377.400 1.945803
377.500 1.995721
377.600 2.026284
377.700 2.054808
377.800 2.086390
377.900 2.101671
378.000 2.115933
378.100 2.129177
378.200 2.139364
378.300 2.126121
378.400 2.115933
378.500 2.124083
378.600 2.116952
378.700 2.091483
378.800 2.071108
378.900 2.062958
379.000 2.054808
379.100 2.042584
379.200 2.030359
379.300 2.006927
379.400 1.948859
379.500 1.861247
379.600 1.758354
379.700 1.658517
379.800 1.614711
379.900 1.652404
380.000 1.773635
380.100 1.895884
380.200 1.978403
380.300 2.025265
380.400 2.054808
380.500 2.077221
380.600 2.062958
380.700 2.062958
380.800 2.076202
380.900 2.096577
381.000 2.121027
381.100 2.130196
381.200 2.104727
381.300 2.071108
381.400 2.045640
381.500 2.037490
381.600 2.039527
381.700 2.047677
381.800 2.042584
381.900 2.025265
382.000 2.002852
382.100 1.990628
382.200 2.023227
382.300 2.051752
382.400 2.040546
382.500 2.014059
382.600 1.988590
382.700 1.994703
382.800 1.995721
382.900 1.969234
383.000 1.932559
383.100 1.886716
383.200 1.814385
383.300 1.708435
383.400 1.591280
383.500 1.526080
383.600 1.531174
383.700 1.618786
383.800 1.725754
383.900 1.820497
384.000 1.880603
384.100 1.927465
384.200 1.964140
384.300 2.006927
384.400 2.047677
384.500 2.076202
384.600 2.069071
384.700 2.068052
384.800 2.061940
384.900 2.063977
385.000 2.053790
385.100 2.062958
385.200 2.077221
385.300 2.080277
385.400 2.073146
385.500 2.058883
385.600 2.038509
385.700 2.026284
385.800 2.029340
385.900 2.045640
386.000 2.052771
386.100 2.066015
386.200 2.059902
386.300 2.036471
386.400 2.029340
386.500 2.021190
386.600 2.019152
386.700 2.033415
386.800 2.051752
386.900 2.054808
387.000 2.039527
387.100 2.017115
387.200 1.988590
387.300 1.978403
387.400 1.989609
387.500 2.011002
387.600 2.017115
387.700 2.001834
387.800 1.985534
387.900 1.980440
388.000 1.994703
388.100 1.987571
388.200 1.960065
388.300 1.928484
388.400 1.899959
388.500 1.840872
388.600 1.741035
388.700 1.607579
388.800 1.494499
388.900 1.448655
389.000 1.512836
389.100 1.654442
389.200 1.786879
389.300 1.875509
389.400 1.918297
389.500 1.937653
389.600 1.952934
389.700 1.973309
389.800 1.985534
389.900 1.978403
390.000 1.977384
390.100 1.996740
390.200 2.018134
390.300 2.030359
390.400 2.030359
390.500 2.024246
390.600 2.005909
390.700 2.009984
390.800 2.043602
390.900 2.068052
391.000 2.066015
391.100 2.066015
391.200 2.061940
391.300 2.035452
391.400 2.018134
391.500 2.024246
391.600 2.031377
391.700 2.032396
391.800 2.022209
391.900 2.000815
392.000 1.990628
392.100 1.987571
392.200 1.974328
392.300 1.951915
392.400 1.950896
392.500 1.965159
392.600 1.959046
392.700 1.949878
392.800 1.926447
392.900 1.900978
393.000 1.866341
393.100 1.797066
393.200 1.638142
393.300 1.421149
393.400 1.423187
393.500 1.598411
393.600 1.727791
393.700 1.807253
393.800 1.863284
393.900 1.905053
394.000 1.943765
394.100 1.968215
394.200 1.974328
394.300 1.966178
394.400 1.959046
394.500 1.941728
394.600 1.941728
394.700 1.955990
394.800 1.958028
394.900 1.948859
395.000 1.941728
395.100 1.935615
395.200 1.932559
395.300 1.937653
395.400 1.943765
395.500 1.942747
395.600 1.927465
395.700 1.908109
395.800 1.900978
395.900 1.910147
396.000 1.913203
396.100 1.897922
396.200 1.862266
396.300 1.816422
396.400 1.763447
396.500 1.701304
396.600 1.597392
396.700 1.387531
396.800 1.165444
396.900 1.084963
397.000 1.135901
397.100 1.263244
397.200 1.426243
397.300 1.566830
397.400 1.669723
397.500 1.747148
397.600 1.805216
397.700 1.833741
397.800 1.845966
397.900 1.872453
398.000 1.885697
398.100 1.891809
398.200 1.883659
398.300 1.874491
398.400 1.885697
398.500 1.904034
398.600 1.882641
398.700 1.838835
398.800 1.894866
398.900 1.914222
399.000 1.925428
399.100 1.934597
399.200 1.941728
399.300 1.946822
399.400 1.937653
399.500 1.930522
399.600 1.908109
399.700 1.897922
399.800 1.898941
399.900 1.905053
400.000 1.900978
400.100 1.900978
400.200 1.903015
400.300 1.903015
400.400 1.904034
400.500 1.897922
400.600 1.894866
400.700 1.898941
400.800 1.911165
400.900 1.912184
401.000 1.906072
401.100 1.910147
401.200 1.910147
401.300 1.911165
401.400 1.917278
401.500 1.922372
401.600 1.928484
401.700 1.938672
401.800 1.948859
401.900 1.958028
402.000 1.955990
402.100 1.939690
402.200 1.924409
402.300 1.891809
402.400 1.843928
402.500 1.802160
402.600 1.802160
402.700 1.838835
402.800 1.879584
402.900 1.899959
403.000 1.911165
403.100 1.906072
403.200 1.905053
403.300 1.907090
403.400 1.911165
403.500 1.920334
403.600 1.928484
403.700 1.938672
403.800 1.946822
403.900 1.941728
404.000 1.942747
404.100 1.946822
404.200 1.939690
404.300 1.930522
404.400 1.919315
404.500 1.901997
404.600 1.887734
404.700 1.904034
404.800 1.925428
404.900 1.934597
405.000 1.932559
405.100 1.932559
405.200 1.936634
405.300 1.927465
405.400 1.923390
405.500 1.929503
405.600 1.932559
405.700 1.936634
405.800 1.944784
405.900 1.951915
406.000 1.944784
406.100 1.917278
406.200 1.907090
406.300 1.900978
406.400 1.856153
406.500 1.777710
406.600 1.813366
406.700 1.853097
406.800 1.856153
406.900 1.850041
407.000 1.840872
407.100 1.830685
407.200 1.829666
407.300 1.824572
407.400 1.836797
407.500 1.836797
407.600 1.815403
407.700 1.795029
407.800 1.790954
407.900 1.816422
408.000 1.845966
408.100 1.861247
408.200 1.861247
408.300 1.857172
408.400 1.838835
408.500 1.830685
408.600 1.825591
408.700 1.839853
408.800 1.857172
408.900 1.863284
409.000 1.854116
409.100 1.843928
409.200 1.838835
409.300 1.818460
409.400 1.796047
409.500 1.763447
409.600 1.727791
409.700 1.687042
409.800 1.616748
409.900 1.528117
410.000 1.418093
410.100 1.312143
410.200 1.271394
410.300 1.340668
410.400 1.486349
410.500 1.623879
410.600 1.699267
410.700 1.731866
410.800 1.752241
410.900 1.758354
411.000 1.763447
411.100 1.775672
411.200 1.792991
411.300 1.809291
411.400 1.831703
411.500 1.850041
411.600 1.859209
411.700 1.845966
411.800 1.819478
411.900 1.801141
412.000 1.799104
412.100 1.802160
412.200 1.798085
412.300 1.799104
412.400 1.812347
412.500 1.827628
412.600 1.830685
412.700 1.814385
412.800 1.788916
412.900 1.784841
413.000 1.791972
413.100 1.797066
413.200 1.794010
413.300 1.794010
413.400 1.806235
413.500 1.820497
413.600 1.828647
413.700 1.836797
413.800 1.846985
413.900 1.852078
414.000 1.853097
414.100 1.849022
414.200 1.826610
