# Wavelength (nm)   F_lamA (normalized erg/cm2/s/A)9.100 0.000228
9.400 0.000272
9.600 0.000305
9.800 0.000342
10.000 0.000381
10.200 0.000425
10.400 0.000472
10.600 0.000524
10.800 0.000579
11.000 0.000639
11.400 0.000774
11.800 0.000930
12.100 0.001061
12.500 0.001258
12.700 0.001366
12.800 0.001423
13.100 0.001602
13.200 0.001666
13.400 0.001799
13.700 0.002013
14.000 0.002246
14.300 0.002500
14.700 0.002873
15.100 0.003289
15.500 0.003754
15.900 0.004272
16.200 0.004700
16.600 0.005329
17.000 0.006029
17.300 0.006604
17.700 0.007449
18.000 0.008145
18.200 0.008638
18.600 0.009700
19.100 0.011193
19.400 0.012174
19.800 0.013599
20.200 0.015155
20.500 0.016415
21.000 0.018700
21.600 0.021754
22.000 0.023990
22.300 0.025773
22.700 0.028295
23.000 0.668599
23.400 0.728986
24.000 0.922222
24.600 1.238647
25.200 1.500000
25.700 1.170531
26.000 1.649758
26.400 2.068599
26.900 2.102899
27.400 2.133333
27.900 2.051691
28.400 2.154589
29.000 2.142512
29.600 1.971498
30.100 1.377778
30.800 1.701449
31.800 2.106280
32.800 2.109662
33.800 2.066667
34.800 2.027536
35.700 2.054589
36.600 2.076812
37.500 2.041063
38.500 1.932367
39.500 1.979227
40.500 1.980676
41.400 1.953623
42.200 1.903382
43.000 1.871014
44.100 1.871981
45.100 1.840097
46.000 1.789372
47.000 1.757005
48.000 1.740580
49.000 1.685024
50.000 1.680193
50.600 1.806280
51.200 2.137198
52.000 2.095652
53.000 2.057488
54.000 1.949275
55.000 1.925604
56.000 1.975845
57.000 1.949758
58.000 1.888889
59.000 1.879710
60.000 1.824155
61.000 1.772464
62.000 1.790338
63.000 1.752174
64.000 1.733333
65.000 1.694203
65.800 1.651691
66.500 1.654106
67.500 1.636232
68.500 1.577295
69.500 1.579710
70.500 1.518841
71.600 1.527536
72.600 1.504831
73.500 1.484541
74.500 1.452657
75.500 1.426087
76.500 1.390338
77.500 1.377778
78.500 1.353623
79.500 1.333333
80.500 1.315459
81.500 1.297101
82.500 1.280193
83.500 1.226570
84.500 1.237198
85.500 1.214976
86.500 1.202899
87.500 1.185024
88.500 1.166184
89.500 1.147343
90.500 1.122222
91.500 1.199034
92.500 2.086473
93.500 2.921739
94.500 4.300483
95.500 4.927536
96.500 5.748792
97.500 3.471014
98.500 6.140097
99.500 6.106280
100.500 6.299517
101.500 5.531401
102.500 3.171981
103.500 5.062802
104.500 6.043478
105.500 6.202899
106.500 5.980676
107.500 6.140097
108.500 5.782609
109.500 6.024155
110.500 5.859903
111.500 5.763285
112.500 5.483092
113.500 5.536232
114.500 5.299517
115.500 5.198068
116.500 5.072464
117.500 4.503865
118.500 4.591787
119.500 4.152657
120.500 3.599034
121.500 2.169082
122.500 3.428986
123.500 3.907246
124.500 4.053140
125.500 4.139614
126.500 4.084058
127.500 4.194686
128.500 4.223188
129.500 4.115942
130.500 4.060870
131.500 4.147826
132.500 4.082126
133.500 4.000966
134.500 4.044928
135.500 3.975362
136.500 3.903382
137.500 3.863768
138.500 3.839130
139.500 3.693720
140.500 3.636715
141.500 3.680676
142.500 3.624638
143.500 3.562802
144.200 3.566667
144.700 3.537681
145.500 3.503382
146.500 3.429469
147.500 3.392754
148.500 3.347343
149.500 3.296618
150.500 3.257971
151.200 3.216908
151.700 3.201932
152.500 3.145894
153.500 3.060870
154.500 3.030918
155.500 2.965700
156.500 2.910145
157.500 2.923188
158.500 2.912560
159.500 2.901932
160.500 2.802899
161.500 2.779710
162.500 2.712077
163.500 2.687440
164.500 2.642995
165.500 2.589855
166.500 2.650242
167.200 2.557488
167.700 2.591304
168.500 2.592754
169.500 2.535749
170.500 2.494203
171.500 2.471014
172.500 2.434783
173.500 2.443961
174.500 2.394203
175.500 2.391304
176.500 2.308213
177.500 2.330435
178.500 2.297101
179.500 2.292271
180.500 2.279227
181.500 2.245894
182.500 2.213043
183.500 2.190821
184.500 2.132367
185.500 2.110628
186.500 2.098068
187.500 2.092754
188.500 2.056039
189.500 2.028019
190.500 2.019807
191.500 1.987923
192.500 1.970048
193.500 1.943478
194.500 1.956039
195.500 1.918841
196.700 1.917391
197.600 1.895652
198.400 1.872947
199.500 1.840097
200.500 1.823188
201.500 1.801932
202.500 1.783575
203.500 1.779710
204.500 1.769082
205.500 1.667150
206.500 1.677295
207.400 1.731401
207.800 1.719807
208.500 1.713043
209.500 1.686473
210.500 1.674396
211.500 1.666184
212.500 1.652174
213.500 1.617874
214.500 1.622222
215.500 1.606763
216.500 1.570531
217.500 1.561353
218.500 1.555072
219.500 1.566184
220.500 1.535266
221.500 1.499517
222.500 1.490821
223.500 1.514493
224.500 1.484058
225.500 1.450242
226.500 1.434783
227.500 1.446377
228.500 1.442995
229.500 1.408213
230.500 1.410628
231.500 1.400483
232.500 1.309662
233.500 1.366184
234.500 1.314010
235.500 1.353140
236.500 1.303865
237.500 1.320773
238.500 1.257005
239.500 1.287923
240.500 1.271498
241.500 1.267150
242.500 1.288889
243.500 1.265217
244.500 1.270531
245.500 1.262319
246.500 1.244444
247.500 1.225121
248.500 1.220290
249.500 1.195169
250.500 1.232367
251.300 1.185990
251.800 1.181643
252.500 1.159420
253.500 1.153140
254.500 1.151208
255.500 1.175362
256.500 1.163285
257.500 1.177295
258.500 1.172464
259.500 1.158937
260.500 1.139614
261.500 1.121739
262.500 1.135749
263.500 1.140580
264.500 1.180193
265.500 1.178744
266.500 1.146860
267.500 1.156039
268.500 1.159420
269.500 1.130435
270.500 1.131401
271.500 1.103382
272.500 1.097101
273.500 1.106280
274.500 1.050242
275.500 1.060870
276.500 1.081159
277.500 1.096618
278.500 1.076812
279.500 0.946377
280.500 0.983092
281.500 1.089855
282.500 1.085507
283.500 1.072464
284.500 1.058454
285.500 1.024155
286.500 1.055556
287.500 1.051691
288.500 1.054106
289.500 1.051208
291.000 1.065217
293.000 1.046860
295.000 1.032367
297.000 1.029469
299.000 1.024638
301.000 1.018841
303.000 1.011594
305.000 1.006280
307.000 0.994686
309.000 0.986957
311.000 0.977295
313.000 0.968116
315.000 0.961353
317.000 0.958937
319.000 0.934783
321.000 0.939130
323.000 0.923188
325.000 0.931401
327.000 0.937198
329.000 0.931884
331.000 0.927053
332.200 0.815459
332.300 0.804831
332.400 0.801932
332.500 0.805314
332.600 0.799517
332.700 0.788406
332.800 0.799517
332.900 0.811594
333.000 0.825604
333.100 0.832850
333.200 0.826570
333.300 0.815942
333.400 0.800483
333.500 0.796618
333.600 0.786473
333.700 0.777295
333.800 0.782126
333.900 0.789855
334.000 0.794686
334.100 0.798068
334.200 0.796135
334.300 0.811594
334.400 0.828019
334.500 0.827536
334.600 0.820290
334.700 0.800000
334.800 0.777295
334.900 0.758454
335.000 0.761353
335.100 0.769565
335.200 0.770048
335.300 0.773913
335.400 0.779710
335.500 0.798068
335.600 0.804348
335.700 0.795169
335.800 0.770531
335.900 0.744444
336.000 0.728019
336.100 0.730435
336.200 0.751208
336.300 0.771498
336.400 0.785024
336.500 0.773430
336.600 0.760386
336.700 0.756039
336.800 0.752174
336.900 0.752174
337.000 0.739614
337.100 0.726570
337.200 0.717391
337.300 0.726087
337.400 0.743478
337.500 0.769565
337.600 0.789372
337.700 0.783092
337.800 0.767633
337.900 0.755072
338.000 0.757005
338.100 0.766667
338.200 0.773913
338.300 0.782126
338.400 0.787440
338.500 0.793237
338.600 0.789372
338.700 0.772464
338.800 0.760870
338.900 0.777778
339.000 0.795169
339.100 0.806280
339.200 0.796618
339.300 0.778744
339.400 0.787440
339.500 0.802899
339.600 0.817391
339.700 0.823188
339.800 0.826570
339.900 0.818841
340.000 0.807246
340.100 0.797585
340.200 0.780193
340.300 0.774879
340.400 0.771498
340.500 0.777778
340.600 0.775362
340.700 0.767633
340.800 0.762802
340.900 0.767633
341.000 0.782126
341.100 0.775362
341.200 0.771981
341.300 0.772947
341.400 0.779710
341.500 0.790338
341.600 0.792271
341.700 0.791787
341.800 0.796618
341.900 0.802899
342.000 0.809662
342.100 0.811594
342.200 0.800966
342.300 0.785024
342.400 0.777295
342.500 0.781643
342.600 0.786957
342.700 0.795169
342.800 0.806763
342.900 0.818841
343.000 0.821739
343.100 0.809179
343.200 0.794203
343.300 0.787440
343.400 0.796135
343.500 0.812560
343.600 0.817874
343.700 0.809662
343.800 0.800000
343.900 0.789372
344.000 0.779710
344.100 0.767150
344.200 0.759903
344.300 0.758937
344.400 0.764734
344.500 0.772947
344.600 0.786957
344.700 0.803382
344.800 0.817874
344.900 0.829469
345.000 0.812077
345.100 0.784541
345.200 0.764251
345.300 0.757488
345.400 0.769565
345.500 0.775845
345.600 0.773913
345.700 0.774396
345.800 0.771981
345.900 0.772947
346.000 0.766667
346.100 0.760870
346.200 0.766667
346.300 0.774879
346.400 0.773913
346.500 0.767633
346.600 0.770048
346.700 0.782126
346.800 0.796135
346.900 0.805797
347.000 0.810145
347.100 0.804348
347.200 0.794203
347.300 0.776329
347.400 0.764734
347.500 0.758937
347.600 0.760870
347.700 0.773913
347.800 0.783575
347.900 0.789372
348.000 0.798068
348.100 0.795652
348.200 0.786473
348.300 0.780193
348.400 0.780676
348.500 0.795652
348.600 0.810628
348.700 0.812077
348.800 0.804831
348.900 0.790821
349.000 0.779710
349.100 0.785990
349.200 0.798551
349.300 0.798068
349.400 0.792754
349.500 0.784058
349.600 0.776329
349.700 0.781159
349.800 0.779227
349.900 0.780193
350.000 0.772947
350.100 0.767150
350.200 0.772947
350.300 0.774879
350.400 0.773913
350.500 0.769082
350.600 0.765217
350.700 0.764734
350.800 0.761353
350.900 0.761836
351.000 0.764251
351.100 0.766667
351.200 0.765700
351.300 0.759420
351.400 0.758454
351.500 0.768116
351.600 0.785024
351.700 0.795169
351.800 0.796135
351.900 0.785507
352.000 0.778261
352.100 0.772947
352.200 0.767633
352.300 0.763285
352.400 0.757488
352.500 0.752657
352.600 0.757488
352.700 0.764734
352.800 0.774879
352.900 0.785024
353.000 0.795652
353.100 0.804348
353.200 0.802899
353.300 0.789372
353.400 0.778744
353.500 0.773913
353.600 0.783092
353.700 0.792271
353.800 0.795169
353.900 0.801932
354.000 0.803382
354.100 0.800000
354.200 0.801449
354.300 0.809662
354.400 0.814976
354.500 0.812560
354.600 0.809179
354.700 0.804348
354.800 0.802415
354.900 0.801449
355.000 0.805797
355.100 0.816908
355.200 0.814976
355.300 0.801449
355.400 0.790821
355.500 0.791304
355.600 0.800966
355.700 0.814010
355.800 0.819807
355.900 0.816425
356.000 0.811111
356.100 0.808213
356.200 0.805797
356.300 0.797585
356.400 0.786473
356.500 0.778744
356.600 0.776329
356.700 0.776329
356.800 0.772947
356.900 0.768116
357.000 0.761836
357.100 0.750725
357.200 0.744444
357.300 0.741546
357.400 0.743961
357.500 0.752657
357.600 0.760386
357.700 0.765217
357.800 0.769565
357.900 0.765700
358.000 0.757971
358.100 0.748792
358.200 0.742512
358.300 0.744444
358.400 0.741063
358.500 0.730435
358.600 0.716425
358.700 0.709662
358.800 0.716908
358.900 0.735266
359.000 0.751208
359.100 0.756522
359.200 0.754106
359.300 0.753140
359.400 0.756522
359.500 0.766184
359.600 0.774396
359.700 0.776812
359.800 0.778744
359.900 0.783092
360.000 0.785507
360.100 0.776812
360.200 0.768599
360.300 0.762802
360.400 0.764734
360.500 0.768116
360.600 0.768116
360.700 0.762802
360.800 0.758937
360.900 0.762319
361.000 0.764251
361.100 0.765700
361.200 0.769082
361.300 0.770531
361.400 0.774879
361.500 0.788406
361.600 0.791787
361.700 0.787440
361.800 0.776329
361.900 0.767150
362.000 0.773430
362.100 0.781643
362.200 0.788889
362.300 0.790821
362.400 0.794203
362.500 0.806763
362.600 0.822222
362.700 0.833333
362.800 0.826570
362.900 0.810628
363.000 0.787923
363.100 0.773430
363.200 0.778261
363.300 0.795652
363.400 0.805314
363.500 0.802415
363.600 0.793237
363.700 0.793237
363.800 0.800000
363.900 0.805797
364.000 0.808213
364.100 0.803382
364.200 0.794203
364.300 0.785024
364.400 0.779710
364.500 0.779710
364.600 0.777778
364.700 0.776812
364.800 0.778261
364.900 0.776812
365.000 0.776329
365.100 0.778744
365.200 0.788406
365.300 0.795169
365.400 0.803382
365.500 0.811594
365.600 0.818841
365.700 0.821256
365.800 0.819807
365.900 0.818357
366.000 0.814976
366.100 0.806763
366.200 0.799517
366.300 0.797101
366.400 0.800483
366.500 0.805797
366.600 0.806763
366.700 0.802415
366.800 0.794686
366.900 0.789372
367.000 0.790821
367.100 0.796135
367.200 0.805797
367.300 0.809662
367.400 0.805314
367.500 0.797585
367.600 0.784541
367.700 0.774879
367.800 0.770531
367.900 0.772464
368.000 0.779227
368.100 0.784541
368.200 0.782609
368.300 0.779227
368.400 0.776329
368.500 0.768599
368.600 0.765217
368.700 0.769082
368.800 0.787923
368.900 0.809662
369.000 0.807729
369.100 0.794203
369.200 0.790338
369.300 0.800000
369.400 0.813043
369.500 0.816908
369.600 0.801449
369.700 0.785990
369.800 0.795169
369.900 0.828986
370.000 0.866184
370.100 0.865700
370.200 0.823671
370.300 0.763768
370.400 0.732850
370.500 0.736232
370.600 0.770048
370.700 0.809179
370.800 0.833333
370.900 0.822222
371.000 0.782609
371.100 0.746377
371.200 0.727053
371.300 0.749275
371.400 0.804831
371.500 0.869082
371.600 0.913043
371.700 0.935266
371.800 0.919807
371.900 0.860386
372.000 0.771981
372.100 0.705797
372.200 0.680676
372.300 0.714493
372.400 0.792754
372.500 0.866667
372.600 0.915459
372.700 0.951208
372.800 0.966667
372.900 0.969565
373.000 0.952657
373.100 0.901932
373.200 0.813527
373.300 0.730435
373.400 0.658937
373.500 0.646377
373.600 0.692271
373.700 0.773913
373.800 0.857971
373.900 0.951208
374.000 1.001932
374.100 1.036715
374.200 1.040097
374.300 1.027536
374.400 0.999034
374.500 0.962802
374.600 0.913527
374.700 0.856039
374.800 0.781159
374.900 0.705797
375.000 0.671498
375.100 0.679710
375.200 0.733816
375.300 0.836232
375.400 0.927536
375.500 0.985024
375.600 1.026570
375.700 1.037681
375.800 1.042029
375.900 1.044928
376.000 1.051208
376.100 1.062319
376.200 1.068116
376.300 1.058454
376.400 1.042512
376.500 1.007246
376.600 0.963768
376.700 0.904831
376.800 0.814493
376.900 0.736232
377.000 0.668116
377.100 0.657005
377.200 0.707729
377.300 0.794686
377.400 0.864734
377.500 0.937198
377.600 0.988889
377.700 1.042512
377.800 1.098068
377.900 1.137681
378.000 1.180676
378.100 1.203865
378.200 1.217391
378.300 1.221739
378.400 1.223188
378.500 1.217391
378.600 1.208213
378.700 1.184541
378.800 1.164251
378.900 1.145411
379.000 1.120773
379.100 1.093720
379.200 1.045894
379.300 0.994686
379.400 0.926087
379.500 0.839130
379.600 0.753623
379.700 0.665700
379.800 0.630435
379.900 0.661353
380.000 0.746860
380.100 0.841546
380.200 0.940097
380.300 0.995652
380.400 1.056522
380.500 1.093720
380.600 1.125604
380.700 1.162319
380.800 1.191304
380.900 1.227536
381.000 1.252174
381.100 1.267633
381.200 1.261836
381.300 1.250725
381.400 1.240097
381.500 1.241063
381.600 1.254589
381.700 1.269082
381.800 1.267150
381.900 1.240580
382.000 1.219324
382.100 1.209662
382.200 1.213527
382.300 1.206763
382.400 1.177778
382.500 1.148309
382.600 1.114493
382.700 1.086957
382.800 1.046860
382.900 1.004831
383.000 0.962802
383.100 0.899034
383.200 0.836715
383.300 0.742029
383.400 0.657005
383.500 0.609662
383.600 0.607729
383.700 0.654589
383.800 0.732850
383.900 0.808213
384.000 0.881643
384.100 0.960870
384.200 1.022705
384.300 1.091787
384.400 1.133816
384.500 1.172947
384.600 1.207729
384.700 1.235749
384.800 1.257971
384.900 1.266184
385.000 1.275362
385.100 1.293237
385.200 1.317874
385.300 1.338647
385.400 1.342029
385.500 1.336232
385.600 1.326087
385.700 1.320290
385.800 1.318841
385.900 1.325121
386.000 1.339130
386.100 1.352657
386.200 1.358454
386.300 1.350725
386.400 1.342029
386.500 1.335266
386.600 1.336715
386.700 1.341546
386.800 1.345411
386.900 1.342512
387.000 1.325604
387.100 1.308213
387.200 1.280193
387.300 1.266184
387.400 1.259420
387.500 1.257971
387.600 1.247343
387.700 1.214976
387.800 1.186957
387.900 1.160870
388.000 1.146377
388.100 1.127536
388.200 1.087923
388.300 1.046860
388.400 0.985024
388.500 0.919807
388.600 0.836232
388.700 0.733333
388.800 0.659903
388.900 0.626570
389.000 0.658454
389.100 0.740097
389.200 0.831884
389.300 0.898068
389.400 0.964251
389.500 1.007729
389.600 1.062319
389.700 1.104348
389.800 1.136232
389.900 1.164734
390.000 1.184058
390.100 1.215459
390.200 1.240580
390.300 1.261836
390.400 1.271498
390.500 1.277778
390.600 1.294203
390.700 1.317391
390.800 1.348309
390.900 1.374396
391.000 1.388406
391.100 1.394203
391.200 1.391304
391.300 1.381643
391.400 1.371498
391.500 1.374396
391.600 1.386473
391.700 1.388406
391.800 1.386473
391.900 1.380193
392.000 1.379710
392.100 1.383092
392.200 1.383575
392.300 1.386473
392.400 1.386473
392.500 1.385507
392.600 1.372464
392.700 1.354106
392.800 1.323188
392.900 1.289855
393.000 1.240097
393.100 1.162319
393.200 1.052174
393.300 0.945411
393.400 0.931884
393.500 1.011594
393.600 1.125604
393.700 1.226087
393.800 1.299517
393.900 1.333816
394.000 1.352657
394.100 1.365700
394.200 1.369565
394.300 1.367633
394.400 1.363285
394.500 1.357005
394.600 1.355556
394.700 1.350725
394.800 1.341063
394.900 1.331884
395.000 1.326087
395.100 1.316908
395.200 1.308213
395.300 1.306280
395.400 1.298068
395.500 1.281643
395.600 1.261836
395.700 1.238164
395.800 1.224638
395.900 1.204348
396.000 1.171981
396.100 1.132850
396.200 1.080676
396.300 1.038647
396.400 0.978261
396.500 0.898551
396.600 0.794203
396.700 0.653623
396.800 0.548792
396.900 0.483575
397.000 0.496135
397.100 0.569082
397.200 0.677295
397.300 0.771014
397.400 0.869565
397.500 0.936232
397.600 1.003865
397.700 1.057488
397.800 1.100966
397.900 1.148792
398.000 1.173913
398.100 1.201449
398.200 1.222222
398.300 1.242512
398.400 1.266667
398.500 1.284541
398.600 1.302415
398.700 1.316425
398.800 1.336232
398.900 1.346860
399.000 1.353623
399.100 1.363768
399.200 1.369565
399.300 1.379227
399.400 1.385507
399.500 1.388889
399.600 1.384541
399.700 1.377778
399.800 1.376329
399.900 1.387440
400.000 1.396618
400.100 1.401449
400.200 1.401932
400.300 1.394203
400.400 1.387440
400.500 1.380193
400.600 1.383575
400.700 1.393720
400.800 1.407246
400.900 1.414493
401.000 1.418357
401.100 1.418841
401.200 1.417391
401.300 1.416908
401.400 1.416425
401.500 1.423188
401.600 1.430435
401.700 1.437681
401.800 1.446377
401.900 1.449275
402.000 1.449275
402.100 1.446860
402.200 1.442029
402.300 1.432850
402.400 1.419807
402.500 1.411594
402.600 1.411111
402.700 1.424155
402.800 1.432367
402.900 1.433816
403.000 1.428019
403.100 1.423188
403.200 1.421739
403.300 1.422222
403.400 1.428502
403.500 1.441063
403.600 1.454589
403.700 1.468116
403.800 1.467633
403.900 1.459420
404.000 1.451208
404.100 1.447826
404.200 1.450725
404.300 1.447826
404.400 1.428019
404.500 1.407246
404.600 1.399034
404.700 1.413043
404.800 1.432367
404.900 1.444928
405.000 1.445411
405.100 1.448309
405.200 1.446860
405.300 1.436232
405.400 1.424155
405.500 1.422222
405.600 1.426087
405.700 1.432850
405.800 1.434783
405.900 1.441063
406.000 1.445411
406.100 1.435266
406.200 1.414493
406.300 1.394686
406.400 1.384541
406.500 1.374396
406.600 1.374396
406.700 1.375362
406.800 1.375362
406.900 1.375845
407.000 1.364251
407.100 1.342029
407.200 1.331401
407.300 1.333816
407.400 1.341063
407.500 1.340580
407.600 1.323188
407.700 1.306763
407.800 1.298551
407.900 1.306280
408.000 1.317874
408.100 1.319807
408.200 1.316425
408.300 1.305797
408.400 1.295652
408.500 1.282126
408.600 1.271014
408.700 1.264734
408.800 1.254106
408.900 1.244928
409.000 1.222705
409.100 1.203382
409.200 1.186473
409.300 1.154589
409.400 1.126570
409.500 1.076329
409.600 1.031401
409.700 0.980676
409.800 0.913527
409.900 0.841546
410.000 0.738164
410.100 0.669565
410.200 0.648309
410.300 0.700483
410.400 0.783575
410.500 0.878744
410.600 0.936232
410.700 0.993720
410.800 1.035266
410.900 1.071498
411.000 1.112077
411.100 1.138164
411.200 1.170048
411.300 1.193237
411.400 1.215942
411.500 1.238164
411.600 1.254106
411.700 1.264734
411.800 1.267633
411.900 1.271014
412.000 1.274879
412.100 1.284058
412.200 1.294203
412.300 1.305314
412.400 1.318357
412.500 1.328019
412.600 1.329469
412.700 1.327053
412.800 1.324638
412.900 1.325604
413.000 1.323671
413.100 1.319807
413.200 1.319807
413.300 1.326087
413.400 1.342995
413.500 1.354106
413.600 1.362319
413.700 1.371014
413.800 1.379710
413.900 1.387440
414.000 1.385990
414.100 1.374879
414.200 1.360870
414.300 1.346860
414.400 1.347343
414.500 1.355072
414.600 1.367150
414.700 1.371014
414.800 1.372464
414.900 1.373913
415.000 1.377778
415.100 1.384058
415.200 1.383575
415.300 1.378744
415.400 1.371981
415.500 1.368116
