# Wavelength (nm)   F_lamA (normalized erg/cm2/s/A)9.100 0.000001
9.400 0.000001
9.600 0.000002
9.800 0.000004
10.000 0.000006
10.200 0.000008
10.400 0.000013
10.600 0.000019
10.800 0.000027
11.000 0.000039
11.400 0.000075
11.800 0.000140
12.100 0.000217
12.500 0.000373
12.700 0.000482
12.800 0.000546
13.100 0.000784
13.200 0.000880
13.400 0.001105
13.700 0.001531
14.000 0.002087
14.300 0.002804
14.700 0.004065
15.100 0.005760
15.500 0.007995
15.900 0.010878
16.200 0.013545
16.600 0.017880
17.000 0.023234
17.300 0.028015
17.700 0.035523
18.000 0.042100
18.200 0.046962
18.600 0.057947
19.100 0.074207
19.400 0.085483
19.800 0.102296
20.200 0.121337
20.500 0.137205
21.000 0.166712
21.600 0.207427
22.000 0.237947
22.300 0.262728
22.700 0.298177
23.000 9.824443
23.400 10.823768
24.000 13.977043
24.600 19.122215
25.200 23.376097
25.700 18.075625
26.000 25.827144
26.400 32.613099
26.900 33.193788
27.400 33.706955
27.900 32.410533
28.400 34.098582
29.000 33.929777
29.600 31.188386
30.100 21.607022
30.800 26.860230
31.800 33.443619
32.800 33.531398
33.800 32.869683
34.800 32.261985
35.700 32.727887
36.600 33.106009
37.500 32.559082
38.500 30.817016
39.500 31.600270
40.500 31.647535
41.400 31.222147
42.200 30.432140
43.000 29.918974
44.100 29.959487
45.100 29.453072
46.000 28.649561
47.000 28.143147
48.000 27.886563
49.000 27.002026
50.000 26.934504
50.600 28.973666
51.200 34.334909
52.000 33.673194
53.000 33.065496
54.000 31.330182
55.000 30.945307
56.000 31.775827
57.000 31.357191
58.000 30.378123
59.000 30.236327
60.000 29.351789
61.000 28.521269
62.000 28.811614
63.000 28.197164
64.000 27.900068
65.000 27.272113
65.800 26.583390
66.500 26.630655
67.500 26.340311
68.500 25.388251
69.500 25.435517
70.500 24.456448
71.600 24.598244
72.600 24.233626
73.500 23.902768
74.500 23.389602
75.500 22.964213
76.500 22.390277
77.500 22.187711
78.500 21.796084
79.500 21.465226
80.500 21.181634
81.500 20.884537
82.500 20.607698
83.500 19.743417
84.500 19.918974
85.500 19.561107
86.500 19.358542
87.500 19.068197
88.500 18.764348
89.500 18.460500
90.500 18.055368
91.500 19.257259
92.500 33.200540
93.500 45.793383
94.500 64.915598
95.500 71.370695
96.500 81.836597
97.500 52.437542
98.500 81.498987
99.500 77.110061
100.500 79.945982
101.500 75.286968
102.500 48.541526
103.500 70.155300
104.500 75.489534
105.500 74.071573
106.500 70.155300
107.500 70.087779
108.500 65.178933
109.500 67.792032
110.500 65.503038
111.500 64.179608
112.500 61.161377
113.500 61.627279
114.500 59.561107
115.500 58.690074
116.500 57.548953
117.500 51.654288
118.500 54.429440
119.500 52.255233
120.500 48.696826
121.500 32.849426
122.500 46.927752
123.500 48.568535
124.500 47.765024
125.500 47.278866
126.500 46.272789
127.500 45.692100
128.500 44.827819
129.500 43.085753
130.500 42.383525
131.500 42.167454
132.500 41.019581
133.500 39.891965
134.500 39.615125
135.500 38.892640
136.500 37.947333
137.500 37.177583
138.500 36.542876
139.500 34.422687
140.500 33.551654
141.500 34.422687
142.500 33.625928
143.500 33.126266
144.200 32.721134
144.700 32.397029
145.500 31.856853
146.500 31.228899
147.500 30.648211
148.500 30.121540
149.500 29.520594
150.500 28.885888
151.200 28.460500
151.700 28.237677
152.500 27.771776
153.500 26.833221
154.500 25.989196
155.500 25.523295
156.500 25.516543
157.500 25.253207
158.500 24.888589
159.500 24.476705
160.500 23.740716
161.500 23.315327
162.500 22.950709
163.500 22.471303
164.500 21.600270
165.500 21.924375
166.500 21.627279
167.200 21.188386
167.700 21.289669
168.500 20.979068
169.500 20.580689
170.500 20.182309
171.500 19.689399
172.500 19.412559
173.500 19.250506
174.500 18.879136
175.500 18.602296
176.500 18.183660
177.500 17.974342
178.500 17.724510
179.500 17.461175
180.500 17.204591
181.500 16.880486
182.500 16.623903
183.500 16.360567
184.500 15.955436
185.500 15.617826
186.500 15.442269
187.500 15.307225
188.500 14.908845
189.500 14.577988
190.500 14.537475
191.500 14.193113
192.500 13.929777
193.500 13.841999
194.500 13.713707
195.500 13.335584
196.700 13.254558
197.600 13.139770
198.400 12.896691
199.500 12.592843
200.500 12.532073
201.500 12.383525
202.500 12.234976
203.500 12.005402
204.500 11.829845
205.500 10.573937
206.500 10.790007
207.400 11.404456
207.800 11.289669
208.500 11.222147
209.500 11.026334
210.500 10.931803
211.500 10.823768
212.500 10.688724
213.500 10.519919
214.500 10.357866
215.500 10.270088
216.500 10.067522
217.500 9.972991
218.500 9.797434
219.500 9.729912
220.500 9.581364
221.500 9.392302
222.500 9.304524
223.500 9.196489
224.500 9.068197
225.500 8.879136
226.500 8.818366
227.500 8.710331
228.500 8.602296
229.500 8.413234
230.500 8.305199
231.500 8.251182
232.500 7.886563
233.500 8.028359
234.500 7.900068
235.500 7.825793
236.500 7.704254
237.500 7.623228
238.500 7.434166
239.500 7.420662
240.500 7.319379
241.500 7.231600
242.500 7.157326
243.500 7.056043
244.500 6.975017
245.500 6.893991
246.500 6.799460
247.500 6.715057
248.500 6.639433
249.500 6.440918
250.500 6.478731
251.300 6.261310
251.800 6.367995
252.500 6.307900
253.500 6.226874
254.500 6.149223
255.500 6.095881
256.500 6.019581
257.500 5.958136
258.500 5.887914
259.500 5.814990
260.500 5.742741
261.500 5.671843
262.500 5.614450
263.500 5.551654
264.500 5.519919
265.500 5.455098
266.500 5.379473
267.500 5.322755
268.500 5.280891
269.500 5.193113
270.500 5.156651
271.500 5.091155
272.500 5.010804
273.500 4.937880
274.500 4.899392
275.500 4.851452
276.500 4.786631
277.500 4.769075
278.500 4.711006
279.500 4.606347
280.500 4.578663
281.500 4.567860
282.500 4.498987
283.500 4.455773
284.500 4.418636
285.500 4.367319
286.500 4.329507
287.500 4.282242
288.500 4.240378
289.500 4.195814
291.000 4.137745
293.000 4.048616
295.000 3.948683
297.000 3.886563
299.000 3.808913
301.000 3.719109
303.000 3.629980
305.000 3.543552
307.000 3.459149
309.000 3.379473
311.000 3.299797
313.000 3.222147
315.000 3.151249
317.000 3.081702
319.000 2.991222
321.000 2.931803
323.000 2.875760
325.000 2.817691
327.000 2.760972
329.000 2.701553
331.000 2.648886
332.200 2.609723
332.300 2.627954
332.400 2.613774
332.500 2.609048
332.600 2.590142
332.700 2.572586
332.800 2.564483
332.900 2.566509
333.000 2.570560
333.100 2.566509
333.200 2.553680
333.300 2.530047
333.400 2.515868
333.500 2.509115
333.600 2.501013
333.700 2.485483
333.800 2.462525
333.900 2.457124
334.000 2.444970
334.100 2.465901
334.200 2.480756
334.300 2.528697
334.400 2.562458
334.500 2.584065
334.600 2.608373
334.700 2.612424
334.800 2.573937
334.900 2.503038
335.000 2.395679
335.100 2.400405
335.200 2.436867
335.300 2.455773
335.400 2.450371
335.500 2.426739
335.600 2.423363
335.700 2.427414
335.800 2.430790
335.900 2.429440
336.000 2.440918
336.100 2.438893
336.200 2.449021
336.300 2.439568
336.400 2.433491
336.500 2.408508
336.600 2.386226
336.700 2.368670
336.800 2.357191
336.900 2.363268
337.000 2.392978
337.100 2.395679
337.200 2.370020
337.300 2.367995
337.400 2.380824
337.500 2.419986
337.600 2.432816
337.700 2.395003
337.800 2.376772
337.900 2.370695
338.000 2.397029
338.100 2.426063
338.200 2.444294
338.300 2.444970
338.400 2.433491
338.500 2.440243
338.600 2.451047
338.700 2.456448
338.800 2.454423
338.900 2.436867
339.000 2.433491
339.100 2.434841
339.200 2.445645
339.300 2.453072
339.400 2.480081
339.500 2.484808
339.600 2.471978
339.700 2.440918
339.800 2.415260
339.900 2.363943
340.000 2.338960
340.100 2.356516
340.200 2.336259
340.300 2.323430
340.400 2.326806
340.500 2.333558
340.600 2.323430
340.700 2.328832
340.800 2.340986
340.900 2.353140
341.000 2.358542
341.100 2.320729
341.200 2.323430
341.300 2.345712
341.400 2.374072
341.500 2.390952
341.600 2.392978
341.700 2.392978
341.800 2.396354
341.900 2.403781
342.000 2.402431
342.100 2.402431
342.200 2.394328
342.300 2.390277
342.400 2.385550
342.500 2.380149
342.600 2.391627
342.700 2.398379
342.800 2.409183
342.900 2.408508
343.000 2.384875
343.100 2.383525
343.200 2.382174
343.300 2.390952
343.400 2.394328
343.500 2.399055
343.600 2.403781
343.700 2.399055
343.800 2.395679
343.900 2.379473
344.000 2.340986
344.100 2.320054
344.200 2.314652
344.300 2.336259
344.400 2.352465
344.500 2.337610
344.600 2.334234
344.700 2.333558
344.800 2.355841
344.900 2.372721
345.000 2.315327
345.100 2.270763
345.200 2.251857
345.300 2.251182
345.400 2.263336
345.500 2.266712
345.600 2.268062
345.700 2.266036
345.800 2.259959
345.900 2.255908
346.000 2.249156
346.100 2.246455
346.200 2.259284
346.300 2.318028
346.400 2.291020
346.500 2.291020
346.600 2.299797
346.700 2.296421
346.800 2.289669
346.900 2.286968
347.000 2.295071
347.100 2.271438
347.200 2.266712
347.300 2.285618
347.400 2.287643
347.500 2.276165
347.600 2.255908
347.700 2.209318
347.800 2.168805
347.900 2.154625
348.000 2.178933
348.100 2.212019
348.200 2.198515
348.300 2.169480
348.400 2.170155
348.500 2.214720
348.600 2.246455
348.700 2.266712
348.800 2.296421
348.900 2.297772
349.000 2.278866
349.100 2.272113
349.200 2.291695
349.300 2.294396
349.400 2.286293
349.500 2.271438
349.600 2.251857
349.700 2.255233
349.800 2.268062
349.900 2.267387
350.000 2.235652
350.100 2.203916
350.200 2.210668
350.300 2.222147
350.400 2.205267
350.500 2.176232
350.600 2.164078
350.700 2.171506
350.800 2.191762
350.900 2.195138
351.000 2.195138
351.100 2.195138
351.200 2.189061
351.300 2.176232
351.400 2.180284
351.500 2.189061
351.600 2.202566
351.700 2.196489
351.800 2.195138
351.900 2.198515
352.000 2.199190
352.100 2.191087
352.200 2.181634
352.300 2.182984
352.400 2.199865
352.500 2.187036
352.600 2.181634
352.700 2.178258
352.800 2.185685
352.900 2.200540
353.000 2.212019
353.100 2.222147
353.200 2.234301
353.300 2.222147
353.400 2.196489
353.500 2.189737
353.600 2.193113
353.700 2.177583
353.800 2.175557
353.900 2.177583
354.000 2.192438
354.100 2.202566
354.200 2.201891
354.300 2.195814
354.400 2.200540
354.500 2.206617
354.600 2.203241
354.700 2.212694
354.800 2.221472
354.900 2.216070
355.000 2.204591
355.100 2.200540
355.200 2.209993
355.300 2.218771
355.400 2.212019
355.500 2.200540
355.600 2.188386
355.700 2.191762
355.800 2.195814
355.900 2.191087
356.000 2.184335
356.100 2.193113
356.200 2.201215
356.300 2.193788
356.400 2.180959
356.500 2.181634
356.600 2.184335
356.700 2.166779
356.800 2.172856
356.900 2.166104
357.000 2.137745
357.100 2.083052
357.200 2.068197
357.300 2.070223
357.400 2.067522
357.500 2.072924
357.600 2.087103
357.700 2.087103
357.800 2.081026
357.900 2.075625
358.000 2.081702
358.100 2.089129
358.200 2.081026
358.300 2.076300
358.400 2.079676
358.500 2.071573
358.600 2.060095
358.700 2.053342
358.800 2.043214
358.900 2.044564
359.000 2.060770
359.100 2.065496
359.200 2.061445
359.300 2.065496
359.400 2.068872
359.500 2.068872
359.600 2.064821
359.700 2.069548
359.800 2.078325
359.900 2.087779
360.000 2.102633
360.100 2.099932
360.200 2.100608
360.300 2.086428
360.400 2.073599
360.500 2.071573
360.600 2.072248
360.700 2.075625
360.800 2.086428
360.900 2.095206
361.000 2.093856
361.100 2.072248
361.200 2.068872
361.300 2.064821
361.400 2.052667
361.500 2.049291
361.600 2.064146
361.700 2.076300
361.800 2.087779
361.900 2.093180
362.000 2.074949
362.100 2.073599
362.200 2.097232
362.300 2.101283
362.400 2.091155
362.500 2.090479
362.600 2.102633
362.700 2.114112
362.800 2.107360
362.900 2.092505
363.000 2.092505
363.100 2.091155
363.200 2.083727
363.300 2.082377
363.400 2.105334
363.500 2.102633
363.600 2.056718
363.700 2.037812
363.800 2.041188
363.900 2.043889
364.000 2.048616
364.100 2.056718
364.200 2.062120
364.300 2.048616
364.400 2.027009
364.500 2.022282
364.600 2.018906
364.700 2.024308
364.800 2.031060
364.900 2.031735
365.000 2.029710
365.100 2.022957
365.200 2.020257
365.300 2.017556
365.400 2.016205
365.500 2.023633
365.600 2.032411
365.700 2.027009
365.800 2.020932
365.900 2.014855
366.000 2.002701
366.100 2.003376
366.200 2.002701
366.300 2.011479
366.400 2.014855
366.500 2.007427
366.600 2.004727
366.700 1.998650
366.800 1.995949
366.900 2.003376
367.000 2.007427
367.100 2.003376
367.200 2.000000
367.300 1.991897
367.400 1.986496
367.500 1.978393
367.600 1.985145
367.700 1.978393
367.800 1.970966
367.900 1.969615
368.000 1.972991
368.100 1.983795
368.200 1.985820
368.300 1.981094
368.400 1.975017
368.500 1.967589
368.600 1.956111
368.700 1.952735
368.800 1.973666
368.900 2.005402
369.000 2.003376
369.100 1.975017
369.200 1.977718
369.300 2.000675
369.400 2.018231
369.500 2.010128
369.600 1.974342
369.700 1.951384
369.800 1.950034
369.900 1.997299
370.000 2.054693
370.100 2.060095
370.200 2.008778
370.300 1.920999
370.400 1.871033
370.500 1.864281
370.600 1.918298
370.700 1.975692
370.800 2.021607
370.900 2.002026
371.000 1.943957
371.100 1.876435
371.200 1.836597
371.300 1.855503
371.400 1.925726
371.500 2.032411
371.600 2.087779
371.700 2.110736
371.800 2.104659
371.900 2.032411
372.000 1.904119
372.100 1.827144
372.200 1.783255
372.300 1.816340
372.400 1.898717
372.500 2.003376
372.600 2.045240
372.700 2.093180
372.800 2.115463
372.900 2.125591
373.000 2.114787
373.100 2.054018
373.200 1.943282
373.300 1.835246
373.400 1.742066
373.500 1.721134
373.600 1.775827
373.700 1.893991
373.800 1.988521
373.900 2.097232
374.000 2.155976
374.100 2.189061
374.200 2.187711
374.300 2.165429
374.400 2.145172
374.500 2.111411
374.600 2.047265
374.700 1.950034
374.800 1.844700
374.900 1.713707
375.000 1.671843
375.100 1.705604
375.200 1.806887
375.300 1.904119
375.400 2.008778
375.500 2.066847
375.600 2.115463
375.700 2.115463
375.800 2.090479
375.900 2.064146
376.000 2.048616
376.100 2.047265
376.200 2.096556
376.300 2.118839
376.400 2.106685
376.500 2.070223
376.600 2.016880
376.700 1.952059
376.800 1.848076
376.900 1.729237
377.000 1.635381
377.100 1.603646
377.200 1.683322
377.300 1.808913
377.400 1.912897
377.500 1.992573
377.600 2.048616
377.700 2.090479
377.800 2.130993
377.900 2.151249
378.000 2.170831
378.100 2.185685
378.200 2.196489
378.300 2.185010
378.400 2.176232
378.500 2.184335
378.600 2.179608
378.700 2.163403
378.800 2.147873
378.900 2.133018
379.000 2.114787
379.100 2.090479
379.200 2.060095
379.300 2.018906
379.400 1.952735
379.500 1.840648
379.600 1.715057
379.700 1.590142
379.800 1.530722
379.900 1.577988
380.000 1.719109
380.100 1.852802
380.200 1.962188
380.300 2.024983
380.400 2.069548
380.500 2.108035
380.600 2.112086
380.700 2.122890
380.800 2.140446
380.900 2.162053
381.000 2.185010
381.100 2.196489
381.200 2.177583
381.300 2.148548
381.400 2.125591
381.500 2.118163
381.600 2.117488
381.700 2.121540
381.800 2.110061
381.900 2.086428
382.000 2.063471
382.100 2.058069
382.200 2.092505
382.300 2.112086
382.400 2.102633
382.500 2.078325
382.600 2.049291
382.700 2.044564
382.800 2.031060
382.900 1.996624
383.000 1.953410
383.100 1.891965
383.200 1.807562
383.300 1.683997
383.400 1.533423
383.500 1.459824
383.600 1.458474
383.700 1.555030
383.800 1.679271
383.900 1.805537
384.000 1.886563
384.100 1.956786
384.200 2.002026
384.300 2.050641
384.400 2.087779
384.500 2.116138
384.600 2.119514
384.700 2.122890
384.800 2.120189
384.900 2.120864
385.000 2.118163
385.100 2.132343
385.200 2.145847
385.300 2.143822
385.400 2.130317
385.500 2.114112
385.600 2.097232
385.700 2.094531
385.800 2.107360
385.900 2.125591
386.000 2.133693
386.100 2.136394
386.200 2.118163
386.300 2.083727
386.400 2.078325
386.500 2.079001
386.600 2.081026
386.700 2.095881
386.800 2.111411
386.900 2.113437
387.000 2.103984
387.100 2.085078
387.200 2.061445
387.300 2.052667
387.400 2.062795
387.500 2.079001
387.600 2.079676
387.700 2.064146
387.800 2.048616
387.900 2.039838
388.000 2.042539
388.100 2.024308
388.200 1.989196
388.300 1.951384
388.400 1.910871
388.500 1.836597
388.600 1.725186
388.700 1.571911
388.800 1.438217
388.900 1.381499
389.000 1.440243
389.100 1.586766
389.200 1.744767
389.300 1.850777
389.400 1.919649
389.500 1.958136
389.600 1.988521
389.700 2.020932
389.800 2.036462
389.900 2.036462
390.000 2.036462
390.100 2.056718
390.200 2.080351
390.300 2.095206
390.400 2.096556
390.500 2.087103
390.600 2.072248
390.700 2.078325
390.800 2.107360
390.900 2.130993
391.000 2.130993
391.100 2.133693
391.200 2.128292
391.300 2.106685
391.400 2.091155
391.500 2.095206
391.600 2.105334
391.700 2.108035
391.800 2.099932
391.900 2.080351
392.000 2.073599
392.100 2.072248
392.200 2.061445
392.300 2.039838
392.400 2.035111
392.500 2.049291
392.600 2.046590
392.700 2.045915
392.800 2.030385
392.900 2.010804
393.000 1.987171
393.100 1.931803
393.200 1.790682
393.300 1.602971
393.400 1.600270
393.500 1.746117
393.600 1.871033
393.700 1.941256
393.800 1.985145
393.900 2.015530
394.000 2.046590
394.100 2.066847
394.200 2.070898
394.300 2.055368
394.400 2.041188
394.500 2.022957
394.600 2.019581
394.700 2.031060
394.800 2.035787
394.900 2.030385
395.000 2.022282
395.100 2.012829
395.200 2.006752
395.300 2.008778
395.400 2.013504
395.500 2.007427
395.600 1.990547
395.700 1.975017
395.800 1.969615
395.900 1.972316
396.000 1.964213
396.100 1.944632
396.200 1.908845
396.300 1.866982
396.400 1.814990
396.500 1.748818
396.600 1.642809
396.700 1.437542
396.800 1.218096
396.900 1.112762
397.000 1.126941
397.100 1.241729
397.200 1.410533
397.300 1.560432
397.400 1.679946
397.500 1.767049
397.600 1.828494
397.700 1.869007
397.800 1.883187
397.900 1.914247
398.000 1.931803
398.100 1.945307
398.200 1.946658
398.300 1.943282
398.400 1.954760
398.500 1.968940
398.600 1.956786
398.700 1.927076
398.800 1.971641
398.900 1.985820
399.000 1.993923
399.100 1.999325
399.200 2.002026
399.300 2.006077
399.400 2.001350
399.500 2.000675
399.600 1.985145
399.700 1.976367
399.800 1.977043
399.900 1.981769
400.000 1.971641
400.100 1.964213
400.200 1.963538
400.300 1.961512
400.400 1.964213
400.500 1.964213
400.600 1.965564
400.700 1.967589
400.800 1.972991
400.900 1.968940
401.000 1.964213
401.100 1.969615
401.200 1.974342
401.300 1.977043
401.400 1.981094
401.500 1.983120
401.600 1.990547
401.700 2.002026
401.800 2.012154
401.900 2.018906
402.000 2.015530
402.100 2.002701
402.200 1.988521
402.300 1.955436
402.400 1.906820
402.500 1.864956
402.600 1.860230
402.700 1.893315
402.800 1.935854
402.900 1.961512
403.000 1.979068
403.100 1.978393
403.200 1.977718
403.300 1.976367
403.400 1.979068
403.500 1.987171
403.600 1.995273
403.700 2.000675
403.800 2.004727
403.900 2.001350
404.000 2.004727
404.100 2.011479
404.200 2.004051
404.300 1.994598
404.400 1.983120
404.500 1.966914
404.600 1.956786
404.700 1.967589
404.800 1.983120
404.900 1.991897
405.000 1.991222
405.100 1.989872
405.200 1.992573
405.300 1.983795
405.400 1.981769
405.500 1.989196
405.600 1.990547
405.700 1.993248
405.800 1.998650
405.900 2.002701
406.000 1.999325
406.100 1.979068
406.200 1.968265
406.300 1.959487
406.400 1.921675
406.500 1.851452
406.600 1.873059
406.700 1.901418
406.800 1.904119
406.900 1.900068
407.000 1.890614
407.100 1.881837
407.200 1.879136
407.300 1.875084
407.400 1.884537
407.500 1.883862
407.600 1.866982
407.700 1.851452
407.800 1.848751
407.900 1.868332
408.000 1.889939
408.100 1.900068
408.200 1.899392
408.300 1.893315
408.400 1.877785
408.500 1.869683
408.600 1.864281
408.700 1.875760
408.800 1.884537
408.900 1.885888
409.000 1.872384
409.100 1.859554
409.200 1.849426
409.300 1.825793
409.400 1.800135
409.500 1.758947
409.600 1.716408
409.700 1.668467
409.800 1.584740
409.900 1.482107
410.000 1.353815
410.100 1.233626
410.200 1.198515
410.300 1.273464
410.400 1.425388
410.500 1.571236
410.600 1.659014
410.700 1.706280
410.800 1.741391
410.900 1.757596
411.000 1.772451
411.100 1.787981
411.200 1.807562
411.300 1.825793
411.400 1.846725
411.500 1.865631
411.600 1.875760
411.700 1.867657
411.800 1.848076
411.900 1.834571
412.000 1.830520
412.100 1.831195
412.200 1.829169
412.300 1.833896
412.400 1.845375
412.500 1.858879
412.600 1.854828
412.700 1.835922
412.800 1.812964
412.900 1.804862
413.000 1.808913
413.100 1.818366
413.200 1.823093
413.300 1.830520
413.400 1.845375
413.500 1.856853
413.600 1.861580
413.700 1.865631
413.800 1.874409
413.900 1.879136
414.000 1.879811
414.100 1.875760
414.200 1.856853
414.300 1.833896
