# Wavelength (nm)   F_lamA (normalized erg/cm2/s/A)9.100 0.001279
9.400 0.001436
9.600 0.001544
9.800 0.001654
10.000 0.001766
10.200 0.001880
10.400 0.001995
10.600 0.002113
10.800 0.002233
11.000 0.002356
11.400 0.002610
11.800 0.002880
12.100 0.003097
12.500 0.003408
12.700 0.003578
12.800 0.003667
13.100 0.003947
13.200 0.004047
13.400 0.004258
13.700 0.004604
14.000 0.004991
14.300 0.005422
14.700 0.006087
15.100 0.006866
15.500 0.007782
15.900 0.008854
16.200 0.009772
16.600 0.011172
17.000 0.012786
17.300 0.014156
17.700 0.016210
18.000 0.017934
18.200 0.019176
18.600 0.021896
19.100 0.025762
19.400 0.028355
19.800 0.032121
20.200 0.036280
20.500 0.039655
21.000 0.045802
21.600 0.054067
22.000 0.060110
22.300 0.064949
22.700 0.071776
23.000 1.649228
23.400 1.844886
24.000 2.367251
24.600 3.193827
25.200 4.015171
25.700 3.196443
26.000 4.457233
26.400 5.621240
26.900 5.793879
27.400 5.911588
27.900 5.540152
28.400 6.089459
29.000 6.086843
29.600 5.503531
30.100 3.596652
30.800 4.441538
31.800 5.704944
32.800 5.720638
33.800 5.563693
34.800 5.425059
35.700 5.595082
36.600 5.835731
37.500 5.723254
38.500 5.302119
39.500 5.574156
40.500 5.663092
41.400 5.595082
42.200 5.425059
43.000 5.299503
44.100 5.391054
45.100 5.323045
46.000 5.139942
47.000 5.051007
48.000 5.045776
49.000 4.844363
50.000 4.896678
50.600 5.320429
51.200 6.685849
52.000 6.507978
53.000 6.335339
54.000 5.903741
55.000 5.820037
56.000 6.170547
57.000 6.115616
58.000 5.901125
59.000 5.898509
60.000 5.676171
61.000 5.516610
62.000 5.691865
63.000 5.550615
64.000 5.527073
65.000 5.393670
65.800 5.239341
66.500 5.289040
67.500 5.262883
68.500 5.024850
69.500 5.090243
70.500 4.839132
71.600 4.954224
72.600 4.891447
73.500 4.839132
74.500 4.729270
75.500 4.645566
76.500 4.509547
77.500 4.496469
78.500 4.423228
79.500 4.370913
80.500 4.321214
81.500 4.274130
82.500 4.227047
83.500 3.996861
84.500 4.096259
85.500 4.025634
86.500 3.999477
87.500 3.947162
88.500 3.889615
89.500 3.834685
90.500 3.750981
91.500 3.871305
92.500 7.371174
93.500 10.465603
94.500 15.129479
95.500 17.386869
96.500 20.183102
97.500 11.786555
98.500 21.289563
99.500 20.881507
100.500 21.789171
101.500 19.424536
102.500 11.297410
103.500 17.609207
104.500 21.368036
105.500 21.514517
106.500 20.245880
107.500 20.776877
108.500 19.293748
109.500 20.303427
110.500 19.531781
111.500 19.207429
112.500 18.213445
113.500 18.603191
114.500 17.810620
115.500 17.664138
116.500 17.433952
117.500 15.362281
118.500 16.194088
119.500 14.656029
120.500 12.691603
121.500 7.724300
122.500 12.189380
123.500 14.036097
124.500 14.454617
125.500 14.488622
126.500 14.057023
127.500 14.352603
128.500 14.255820
129.500 13.594036
130.500 13.340309
131.500 13.594036
132.500 13.225216
133.500 12.814544
134.500 12.921789
135.500 12.681140
136.500 12.328015
137.500 12.144912
138.500 12.032435
139.500 11.331415
140.500 11.116924
141.500 11.404656
142.500 11.169239
143.500 11.033220
144.200 10.978289
144.700 10.889354
145.500 10.714099
146.500 10.486529
147.500 10.326968
148.500 10.172639
149.500 9.992153
150.500 9.801203
151.200 9.612869
151.700 9.599791
152.500 9.419304
153.500 9.047868
154.500 8.885692
155.500 8.671201
156.500 8.639812
157.500 8.645043
158.500 8.584881
159.500 8.516872
160.500 8.216061
161.500 8.095736
162.500 7.936176
163.500 7.852472
164.500 7.645828
165.500 7.588281
166.500 7.640596
167.200 7.381637
167.700 7.504578
168.500 7.452263
169.500 7.290086
170.500 7.133142
171.500 6.984044
172.500 6.879414
173.500 6.897724
174.500 6.751242
175.500 6.717238
176.500 6.481821
177.500 6.507978
178.500 6.421658
179.500 6.377191
180.500 6.301334
181.500 6.173162
182.500 6.099922
183.500 6.008370
184.500 5.827884
185.500 5.723254
186.500 5.678786
187.500 5.678786
188.500 5.511378
189.500 5.388438
190.500 5.419827
191.500 5.283809
192.500 5.197489
193.500 5.179179
194.500 5.181794
195.500 5.022234
196.700 5.037928
197.600 5.009155
198.400 4.909757
199.500 4.789432
200.500 4.778969
201.500 4.721423
202.500 4.692650
203.500 4.611562
204.500 4.561862
205.500 4.203505
206.500 4.274130
207.400 4.441538
207.800 4.381376
208.500 4.370913
209.500 4.284593
210.500 4.266283
211.500 4.232278
212.500 4.198274
213.500 4.114570
214.500 4.077949
215.500 4.049176
216.500 3.962856
217.500 3.928852
218.500 3.879152
219.500 3.879152
220.500 3.805912
221.500 3.730055
222.500 3.682971
223.500 3.690819
224.500 3.628041
225.500 3.552184
226.500 3.531258
227.500 3.512948
228.500 3.486790
229.500 3.403087
230.500 3.379545
231.500 3.345540
232.500 3.128433
233.500 3.256605
234.500 3.172901
235.500 3.193827
236.500 3.115354
237.500 3.110123
238.500 3.010725
239.500 3.036882
240.500 2.992414
241.500 2.966257
242.500 2.966257
243.500 2.911326
244.500 2.900863
245.500 2.872090
246.500 2.827622
247.500 2.793618
248.500 2.783155
249.500 2.699451
250.500 2.746534
251.300 2.657599
251.800 2.686372
252.500 2.641904
253.500 2.608946
254.500 2.587235
255.500 2.596913
256.500 2.564478
257.500 2.562647
258.500 2.541198
259.500 2.511378
260.500 2.473450
261.500 2.444677
262.500 2.433952
263.500 2.418781
264.500 2.444939
265.500 2.423751
266.500 2.378237
267.500 2.370913
268.500 2.358619
269.500 2.315197
270.500 2.304473
271.500 2.267329
272.500 2.238818
273.500 2.230970
274.500 2.170808
275.500 2.160607
276.500 2.159561
277.500 2.167669
278.500 2.138635
279.500 2.029035
280.500 2.050745
281.500 2.102537
282.500 2.079257
283.500 2.053361
284.500 2.033743
285.500 2.006539
286.500 2.011248
287.500 1.991891
288.500 1.980643
289.500 1.964949
291.000 1.957102
293.000 1.915250
295.000 1.878106
297.000 1.857965
299.000 1.829976
301.000 1.804604
303.000 1.775307
305.000 1.747319
307.000 1.716453
309.000 1.690557
311.000 1.662046
313.000 1.633795
315.000 1.609469
317.000 1.586974
319.000 1.547999
321.000 1.534659
323.000 1.509286
325.000 1.495161
327.000 1.480251
329.000 1.459064
331.000 1.440230
332.200 1.408841
332.300 1.417212
332.400 1.413026
332.500 1.407010
332.600 1.395501
332.700 1.381376
332.800 1.382945
332.900 1.388177
333.000 1.395501
333.100 1.401256
333.200 1.398378
333.300 1.391839
333.400 1.379806
333.500 1.371436
333.600 1.358880
333.700 1.346325
333.800 1.345540
333.900 1.346586
334.000 1.341617
334.100 1.345540
334.200 1.347633
334.300 1.370390
334.400 1.391316
334.500 1.399948
334.600 1.405702
334.700 1.402040
334.800 1.379022
334.900 1.346063
335.000 1.309443
335.100 1.310228
335.200 1.330369
335.300 1.342140
335.400 1.342401
335.500 1.331415
335.600 1.328015
335.700 1.332200
335.800 1.328276
335.900 1.320952
336.000 1.314674
336.100 1.309966
336.200 1.319906
336.300 1.324353
336.400 1.325922
336.500 1.314936
336.600 1.302380
336.700 1.292702
336.800 1.287994
336.900 1.292964
337.000 1.304211
337.100 1.304473
337.200 1.286947
337.300 1.283547
337.400 1.293225
337.500 1.317552
337.600 1.332200
337.700 1.318336
337.800 1.304211
337.900 1.296364
338.000 1.303950
338.100 1.318336
338.200 1.332200
338.300 1.343186
338.400 1.340570
338.500 1.341878
338.600 1.339001
338.700 1.331938
338.800 1.329061
338.900 1.331154
339.000 1.338216
339.100 1.346848
339.200 1.347371
339.300 1.342140
339.400 1.348417
339.500 1.354172
339.600 1.361496
339.700 1.357311
339.800 1.349464
339.900 1.322783
340.000 1.298718
340.100 1.299765
340.200 1.289302
340.300 1.288778
340.400 1.289040
340.500 1.293225
340.600 1.284593
340.700 1.283024
340.800 1.292440
340.900 1.297410
341.000 1.300288
341.100 1.288255
341.200 1.291656
341.300 1.306566
341.400 1.318860
341.500 1.319906
341.600 1.316505
341.700 1.315982
341.800 1.323829
341.900 1.331677
342.000 1.332985
342.100 1.330107
342.200 1.321214
342.300 1.317552
342.400 1.316505
342.500 1.314413
342.600 1.317813
342.700 1.322783
342.800 1.330369
342.900 1.336385
343.000 1.326445
343.100 1.319121
343.200 1.314151
343.300 1.315459
343.400 1.322260
343.500 1.326707
343.600 1.329323
343.700 1.327753
343.800 1.324353
343.900 1.316244
344.000 1.299241
344.100 1.283285
344.200 1.277269
344.300 1.278839
344.400 1.281454
344.500 1.286686
344.600 1.298457
344.700 1.311012
344.800 1.327230
344.900 1.337693
345.000 1.307612
345.100 1.272822
345.200 1.256605
345.300 1.250589
345.400 1.259221
345.500 1.259744
345.600 1.257913
345.700 1.258959
345.800 1.253989
345.900 1.252420
346.000 1.248234
346.100 1.246403
346.200 1.252681
346.300 1.273607
346.400 1.267852
346.500 1.263929
346.600 1.265237
346.700 1.268376
346.800 1.267591
346.900 1.270991
347.000 1.280670
347.100 1.278839
347.200 1.271253
347.300 1.259482
347.400 1.255035
347.500 1.249804
347.600 1.250327
347.700 1.247450
347.800 1.239602
347.900 1.234894
348.000 1.243264
348.100 1.251112
348.200 1.244834
348.300 1.234894
348.400 1.235156
348.500 1.254512
348.600 1.270991
348.700 1.278054
348.800 1.280670
348.900 1.273346
349.000 1.263406
349.100 1.261575
349.200 1.270730
349.300 1.273869
349.400 1.267329
349.500 1.254251
349.600 1.246142
349.700 1.251373
349.800 1.260005
349.900 1.261836
350.000 1.243788
350.100 1.232540
350.200 1.238295
350.300 1.241172
350.400 1.234371
350.500 1.222077
350.600 1.215799
350.700 1.217892
350.800 1.223123
350.900 1.227570
351.000 1.233325
351.100 1.235417
351.200 1.232017
351.300 1.222338
351.400 1.216584
351.500 1.222338
351.600 1.231494
351.700 1.236987
351.800 1.240649
351.900 1.238818
352.000 1.236987
352.100 1.232801
352.200 1.227832
352.300 1.229139
352.400 1.231494
352.500 1.229139
352.600 1.232540
352.700 1.234109
352.800 1.238556
352.900 1.246403
353.000 1.253466
353.100 1.258436
353.200 1.262621
353.300 1.255297
353.400 1.241695
353.500 1.235417
353.600 1.235417
353.700 1.234371
353.800 1.237248
353.900 1.240126
354.000 1.243788
354.100 1.244049
354.200 1.244049
354.300 1.247188
354.400 1.250589
354.500 1.251373
354.600 1.251112
354.700 1.253204
354.800 1.256605
354.900 1.254251
355.000 1.251112
355.100 1.251373
355.200 1.253466
355.300 1.251112
355.400 1.243003
355.500 1.240387
355.600 1.243264
355.700 1.250850
355.800 1.252943
355.900 1.248496
356.000 1.242218
356.100 1.245619
356.200 1.250850
356.300 1.247973
356.400 1.236987
356.500 1.225216
356.600 1.222338
356.700 1.221815
356.800 1.226785
356.900 1.223908
357.000 1.211614
357.100 1.188334
357.200 1.173424
357.300 1.171593
357.400 1.172378
357.500 1.174993
357.600 1.181794
357.700 1.183102
357.800 1.181010
357.900 1.177086
358.000 1.177086
358.100 1.177609
358.200 1.175778
358.300 1.174209
358.400 1.170285
358.500 1.163484
358.600 1.154329
358.700 1.149098
358.800 1.148313
358.900 1.157468
359.000 1.168193
359.100 1.171855
359.200 1.169239
359.300 1.168977
359.400 1.169762
359.500 1.173424
359.600 1.177086
359.700 1.180487
359.800 1.183887
359.900 1.186503
360.000 1.188595
360.100 1.182841
360.200 1.182318
360.300 1.178132
360.400 1.174732
360.500 1.175255
360.600 1.177609
360.700 1.178132
360.800 1.178917
360.900 1.182056
361.000 1.184410
361.100 1.182579
361.200 1.181271
361.300 1.178394
361.400 1.178132
361.500 1.181010
361.600 1.185718
361.700 1.189642
361.800 1.193042
361.900 1.194088
362.000 1.190426
362.100 1.189903
362.200 1.200105
362.300 1.206121
362.400 1.204290
362.500 1.207952
362.600 1.215276
362.700 1.223123
362.800 1.222338
362.900 1.212399
363.000 1.201151
363.100 1.194612
363.200 1.193827
363.300 1.201151
363.400 1.213445
363.500 1.212399
363.600 1.193304
363.700 1.182841
363.800 1.184933
363.900 1.188857
364.000 1.190688
364.100 1.189903
364.200 1.186241
364.300 1.179702
364.400 1.174732
364.500 1.176563
364.600 1.172901
364.700 1.171593
364.800 1.172901
364.900 1.173424
365.000 1.175517
365.100 1.175517
365.200 1.177871
365.300 1.181010
365.400 1.183102
365.500 1.183625
365.600 1.186241
365.700 1.184933
365.800 1.184149
365.900 1.181533
366.000 1.173947
366.100 1.169239
366.200 1.165315
366.300 1.168716
366.400 1.172639
366.500 1.172378
366.600 1.170808
366.700 1.165577
366.800 1.161915
366.900 1.163223
367.000 1.166885
367.100 1.168977
367.200 1.171070
367.300 1.168977
367.400 1.164792
367.500 1.156422
367.600 1.149359
367.700 1.143866
367.800 1.140727
367.900 1.143343
368.000 1.147528
368.100 1.154067
368.200 1.152760
368.300 1.148836
368.400 1.147005
368.500 1.142297
368.600 1.132880
368.700 1.132357
368.800 1.150405
368.900 1.173686
369.000 1.176301
369.100 1.156683
369.200 1.154067
369.300 1.168977
369.400 1.189642
369.500 1.191996
369.600 1.161392
369.700 1.142035
369.800 1.147528
369.900 1.188072
370.000 1.235156
370.100 1.241957
370.200 1.204028
370.300 1.128172
370.400 1.087889
370.500 1.084489
370.600 1.136019
370.700 1.193827
370.800 1.239864
370.900 1.223908
371.000 1.164792
371.100 1.104107
371.200 1.066702
371.300 1.086581
371.400 1.149098
371.500 1.250589
371.600 1.313890
371.700 1.349987
371.800 1.339001
371.900 1.274915
372.000 1.156683
372.100 1.080565
372.200 1.033743
372.300 1.064347
372.400 1.148051
372.500 1.258697
372.600 1.326184
372.700 1.391054
372.800 1.417735
372.900 1.422966
373.000 1.398901
373.100 1.331938
373.200 1.210568
373.300 1.108030
373.400 1.015433
373.500 0.995815
373.600 1.045776
373.700 1.162176
373.800 1.266545
373.900 1.392624
374.000 1.463510
374.100 1.512686
374.200 1.528119
374.300 1.518964
374.400 1.491237
374.500 1.446770
374.600 1.370128
374.700 1.268114
374.800 1.160868
374.900 1.034789
375.000 0.985352
375.100 1.000000
375.200 1.084489
375.300 1.197227
375.400 1.323829
375.500 1.403610
375.600 1.478420
375.700 1.508763
375.800 1.523411
375.900 1.523673
376.000 1.519226
376.100 1.522103
376.200 1.538059
376.300 1.533351
376.400 1.512425
376.500 1.464033
376.600 1.390793
376.700 1.313890
376.800 1.196443
376.900 1.076903
377.000 0.983521
377.100 0.946377
377.200 1.003400
377.300 1.123202
377.400 1.229924
377.500 1.336385
377.600 1.422182
377.700 1.491760
377.800 1.563170
377.900 1.608946
378.000 1.654983
378.100 1.679833
378.200 1.698143
378.300 1.704159
378.400 1.706775
378.500 1.707036
378.600 1.698404
378.700 1.680356
378.800 1.660738
378.900 1.635626
379.000 1.599529
379.100 1.559247
379.200 1.498300
379.300 1.426628
379.400 1.340047
379.500 1.213445
379.600 1.097306
379.700 0.977766
379.800 0.921528
379.900 0.949778
380.000 1.063824
380.100 1.182579
380.200 1.314936
380.300 1.402563
380.400 1.482082
380.500 1.541460
380.600 1.580696
380.700 1.624640
380.800 1.660738
380.900 1.700235
381.000 1.731624
381.100 1.750719
381.200 1.747580
381.300 1.735810
381.400 1.722992
381.500 1.726393
381.600 1.729009
381.700 1.727701
381.800 1.716191
381.900 1.688203
382.000 1.668323
382.100 1.661784
382.200 1.676694
382.300 1.679048
382.400 1.658122
382.500 1.626733
382.600 1.586189
382.700 1.555061
382.800 1.513471
382.900 1.456448
383.000 1.396547
383.100 1.311012
383.200 1.221031
383.300 1.102276
383.400 0.965734
383.500 0.899817
383.600 0.888831
383.700 0.954486
383.800 1.063039
383.900 1.181010
384.000 1.276484
384.100 1.380853
384.200 1.453309
384.300 1.530735
384.400 1.582788
384.500 1.627518
384.600 1.664400
384.700 1.690034
384.800 1.710437
384.900 1.722208
385.000 1.733979
385.100 1.753858
385.200 1.768768
385.300 1.776615
385.400 1.773476
385.500 1.766675
385.600 1.760398
385.700 1.761967
385.800 1.775569
385.900 1.791525
386.000 1.800419
386.100 1.801465
386.200 1.790740
386.300 1.762752
386.400 1.758043
386.500 1.758567
386.600 1.761967
386.700 1.769814
386.800 1.774523
386.900 1.773476
387.000 1.761182
387.100 1.742611
387.200 1.719069
387.300 1.709129
387.400 1.709129
387.500 1.709914
387.600 1.696050
387.700 1.667015
387.800 1.641120
387.900 1.612869
388.000 1.589328
388.100 1.557154
388.200 1.503793
388.300 1.449647
388.400 1.377975
388.500 1.288255
388.600 1.182579
388.700 1.040806
388.800 0.933822
388.900 0.875490
389.000 0.906095
389.100 1.004970
389.200 1.142558
389.300 1.245619
389.400 1.342140
389.500 1.410411
389.600 1.475804
389.700 1.532043
389.800 1.568140
389.900 1.598221
390.000 1.620978
390.100 1.650013
390.200 1.682448
390.300 1.707036
390.400 1.720115
390.500 1.726131
390.600 1.732932
390.700 1.750981
390.800 1.779754
390.900 1.808266
391.000 1.820037
391.100 1.825007
391.200 1.820037
391.300 1.805912
391.400 1.794664
391.500 1.797541
391.600 1.811143
391.700 1.818729
391.800 1.819513
391.900 1.811928
392.000 1.810882
392.100 1.811928
392.200 1.808789
392.300 1.803819
392.400 1.801465
392.500 1.804865
392.600 1.798849
392.700 1.792048
392.800 1.775830
392.900 1.758043
393.000 1.737379
393.100 1.682710
393.200 1.589851
393.300 1.472404
393.400 1.438922
393.500 1.500654
393.600 1.613654
393.700 1.697097
393.800 1.749150
393.900 1.775569
394.000 1.794141
394.100 1.805388
394.200 1.806696
394.300 1.797803
394.400 1.786555
394.500 1.771122
394.600 1.763013
394.700 1.762752
394.800 1.758828
394.900 1.752027
395.000 1.742349
395.100 1.731101
395.200 1.720638
395.300 1.716453
395.400 1.710960
395.500 1.693173
395.600 1.672247
395.700 1.649490
395.800 1.633272
395.900 1.612869
396.000 1.577295
396.100 1.537274
396.200 1.483652
396.300 1.435260
396.400 1.369605
396.500 1.285378
396.600 1.181794
396.700 1.023280
396.800 0.880984
396.900 0.777923
397.000 0.754643
397.100 0.812713
397.200 0.933298
397.300 1.052315
397.400 1.177348
397.500 1.270468
397.600 1.350510
397.700 1.418519
397.800 1.461679
397.900 1.511902
398.000 1.544860
398.100 1.575464
398.200 1.600575
398.300 1.620194
398.400 1.644520
398.500 1.665184
398.600 1.677478
398.700 1.681140
398.800 1.700235
398.900 1.711483
399.000 1.722992
399.100 1.732932
399.200 1.738164
399.300 1.744703
399.400 1.747842
399.500 1.751766
399.600 1.749411
399.700 1.748104
399.800 1.748888
399.900 1.754120
400.000 1.750458
400.100 1.744180
400.200 1.742872
400.300 1.738425
400.400 1.737641
400.500 1.737117
400.600 1.737641
400.700 1.739472
400.800 1.744965
400.900 1.745226
401.000 1.744442
401.100 1.747319
401.200 1.752289
401.300 1.756736
401.400 1.758043
401.500 1.762752
401.600 1.771384
401.700 1.780539
401.800 1.788125
401.900 1.791787
402.000 1.791263
402.100 1.785770
402.200 1.775830
402.300 1.754905
402.400 1.726393
402.500 1.701805
402.600 1.695265
402.700 1.710698
402.800 1.733194
402.900 1.750458
403.000 1.764321
403.100 1.769030
403.200 1.773476
403.300 1.775830
403.400 1.778969
403.500 1.787078
403.600 1.792571
403.700 1.796495
403.800 1.797541
403.900 1.793879
404.000 1.791787
404.100 1.789694
404.200 1.785509
404.300 1.780277
404.400 1.766675
404.500 1.752027
404.600 1.743395
404.700 1.753335
404.800 1.768245
404.900 1.778446
405.000 1.780539
405.100 1.779493
405.200 1.775307
405.300 1.767199
405.400 1.761967
405.500 1.764844
405.600 1.769030
405.700 1.771122
405.800 1.770599
405.900 1.773215
406.000 1.773738
406.100 1.765368
406.200 1.752027
406.300 1.739733
406.400 1.723254
406.500 1.692127
406.600 1.690296
406.700 1.696312
406.800 1.694219
406.900 1.692127
407.000 1.684018
407.100 1.668585
407.200 1.659691
407.300 1.657599
407.400 1.660999
407.500 1.659168
407.600 1.644520
407.700 1.632226
407.800 1.624379
407.900 1.630133
408.000 1.641381
408.100 1.645828
408.200 1.642951
408.300 1.632488
408.400 1.618886
408.500 1.605022
408.600 1.591159
408.700 1.583312
408.800 1.573633
408.900 1.562909
409.000 1.542244
409.100 1.521057
409.200 1.497515
409.300 1.459848
409.400 1.421658
409.500 1.365943
409.600 1.306566
409.700 1.240649
409.800 1.151713
409.900 1.054931
410.000 0.937222
410.100 0.842794
410.200 0.811928
410.300 0.864243
410.400 0.967826
410.500 1.088935
410.600 1.176824
410.700 1.251896
410.800 1.312059
410.900 1.357049
411.000 1.400471
411.100 1.433691
411.200 1.468480
411.300 1.495161
411.400 1.519749
411.500 1.543029
411.600 1.561862
411.700 1.570233
411.800 1.570756
411.900 1.572325
412.000 1.574680
412.100 1.583050
412.200 1.591420
412.300 1.601360
412.400 1.613654
412.500 1.624640
412.600 1.620194
412.700 1.607638
412.800 1.597698
412.900 1.593251
413.000 1.593775
413.100 1.599791
413.200 1.606853
413.300 1.618363
413.400 1.636934
413.500 1.648182
413.600 1.655768
413.700 1.660214
413.800 1.666231
413.900 1.671201
414.000 1.671724
414.100 1.663877
414.200 1.648705
414.300 1.634057
414.400 1.627518
414.500 1.634842
414.600 1.648967
414.700 1.658907
414.800 1.661522
414.900 1.660999
415.000 1.664400
415.100 1.668846
415.200 1.668846
