# Wavelength (nm)   F_lamA (normalized erg/cm2/s/A)9.100 0.000043
9.400 0.000059
9.600 0.000073
9.800 0.000089
10.000 0.000108
10.200 0.000130
10.400 0.000157
10.600 0.000187
10.800 0.000222
11.000 0.000262
11.400 0.000358
11.800 0.000478
12.100 0.000587
12.500 0.000759
12.700 0.000857
12.800 0.000909
13.100 0.001078
13.200 0.001139
13.400 0.001268
13.700 0.001479
14.000 0.001713
14.300 0.001968
14.700 0.002344
15.100 0.002762
15.500 0.003220
15.900 0.003719
16.200 0.004119
16.600 0.004686
17.000 0.005293
17.300 0.005771
17.700 0.006440
18.000 0.006962
18.200 0.007321
18.600 0.008062
19.100 0.009026
19.400 0.009625
19.800 0.010446
20.200 0.011286
20.500 0.011930
21.000 0.013025
21.600 0.014362
22.000 0.015280
22.300 0.015974
22.700 0.016892
23.000 0.173503
23.400 0.176124
24.000 0.187262
24.600 0.207050
25.200 0.222776
25.700 0.196042
26.000 0.228935
26.400 0.255537
26.900 0.255537
27.400 0.255406
27.900 0.247281
28.400 0.252261
29.000 0.248722
29.600 0.233783
30.100 0.188966
30.800 0.207968
31.800 0.232997
32.800 0.229197
33.800 0.222120
34.800 0.215568
35.700 0.214258
36.600 0.212816
37.500 0.207312
38.500 0.196305
39.500 0.196829
40.500 0.194208
41.400 0.189883
42.200 0.184248
43.000 0.180055
44.100 0.177565
45.100 0.173241
46.000 0.167737
47.000 0.163412
48.000 0.160398
49.000 0.154763
50.000 0.152798
50.600 0.160660
51.200 0.183069
52.000 0.179007
53.000 0.174813
54.000 0.165771
55.000 0.162757
56.000 0.165247
57.000 0.162233
58.000 0.156860
59.000 0.155157
60.000 0.150177
61.000 0.145590
62.000 0.145983
63.000 0.142445
64.000 0.140349
65.000 0.136810
65.800 0.133272
66.500 0.133010
67.500 0.131044
68.500 0.126209
69.500 0.125829
70.500 0.120928
71.600 0.120967
72.600 0.118870
73.500 0.116983
74.500 0.114258
75.500 0.111938
76.500 0.108963
77.500 0.107705
78.500 0.105596
79.500 0.103787
80.500 0.102202
81.500 0.100537
82.500 0.099030
83.500 0.094915
84.500 0.095413
85.500 0.093566
86.500 0.092426
87.500 0.090906
88.500 0.089346
89.500 0.087787
90.500 0.085755
91.500 0.093225
92.500 0.156991
93.500 0.217272
94.500 0.315817
95.500 0.359324
96.500 0.417114
97.500 0.254881
98.500 0.441620
99.500 0.437295
100.500 0.451055
101.500 0.399817
102.500 0.233783
103.500 0.366400
104.500 0.432971
105.500 0.442275
106.500 0.425763
107.500 0.436640
108.500 0.411086
109.500 0.428122
110.500 0.417114
111.500 0.410300
112.500 0.390643
113.500 0.394313
114.500 0.377539
115.500 0.370200
116.500 0.361289
117.500 0.321452
118.500 0.328659
119.500 0.298650
120.500 0.260516
121.500 0.159350
122.500 0.248984
123.500 0.281221
124.500 0.290525
125.500 0.295898
126.500 0.291836
127.500 0.299305
128.500 0.301664
129.500 0.294719
130.500 0.292098
131.500 0.299830
132.500 0.297078
133.500 0.293015
134.500 0.298781
135.500 0.295112
136.500 0.292622
137.500 0.292229
138.500 0.292491
139.500 0.284760
140.500 0.282008
141.500 0.289346
142.500 0.285939
143.500 0.282663
144.200 0.287905
144.700 0.283973
145.500 0.287249
146.500 0.279387
147.500 0.280697
148.500 0.279780
149.500 0.278731
150.500 0.280828
151.200 0.279256
151.700 0.275455
152.500 0.276373
153.500 0.274800
154.500 0.274276
155.500 0.276635
156.500 0.270607
157.500 0.284366
158.500 0.293540
159.500 0.298257
160.500 0.281877
161.500 0.294588
162.500 0.289477
163.500 0.293408
164.500 0.312017
165.500 0.286594
166.500 0.331411
167.200 0.309134
167.700 0.331804
168.500 0.343467
169.500 0.335867
170.500 0.339143
171.500 0.350937
172.500 0.349364
173.500 0.361945
174.500 0.356572
175.500 0.367711
176.500 0.344647
177.500 0.362469
178.500 0.363779
179.500 0.376622
180.500 0.395361
181.500 0.394837
182.500 0.384222
183.500 0.390774
184.500 0.368628
185.500 0.380160
186.500 0.390119
187.500 0.390643
188.500 0.391037
189.500 0.396540
190.500 0.390381
191.500 0.398637
192.500 0.403748
193.500 0.387760
194.500 0.410824
195.500 0.410300
196.700 0.421177
197.600 0.412528
198.400 0.411086
199.500 0.409645
200.500 0.399948
201.500 0.404010
202.500 0.389071
203.500 0.413314
204.500 0.423405
205.500 0.412004
206.500 0.411742
207.400 0.434543
207.800 0.434674
208.500 0.433102
209.500 0.425370
210.500 0.420784
211.500 0.429170
212.500 0.429039
213.500 0.410693
214.500 0.431791
215.500 0.427991
216.500 0.413576
217.500 0.415280
218.500 0.426681
219.500 0.446993
220.500 0.436116
221.500 0.417770
222.500 0.427860
223.500 0.457738
224.500 0.439654
225.500 0.423142
226.500 0.413445
227.500 0.435199
228.500 0.444241
229.500 0.426550
230.500 0.442668
231.500 0.443585
232.500 0.407941
233.500 0.431791
234.500 0.395754
235.500 0.448041
236.500 0.409121
237.500 0.434543
238.500 0.383567
239.500 0.417639
240.500 0.412266
241.500 0.416852
242.500 0.454593
243.500 0.444503
244.500 0.459180
245.500 0.457345
246.500 0.456035
247.500 0.438606
248.500 0.431791
249.500 0.428515
250.500 0.473070
251.300 0.433757
251.800 0.412004
252.500 0.401651
253.500 0.413576
254.500 0.418294
255.500 0.453545
256.500 0.450924
257.500 0.476346
258.500 0.477264
259.500 0.471629
260.500 0.457476
261.500 0.443979
262.500 0.475429
263.500 0.491941
264.500 0.542655
265.500 0.553139
266.500 0.522474
267.500 0.541738
268.500 0.554449
269.500 0.524440
270.500 0.534268
271.500 0.504652
272.500 0.507404
273.500 0.527716
274.500 0.467698
275.500 0.491417
276.500 0.525619
277.500 0.545145
278.500 0.524047
279.500 0.366269
280.500 0.411873
281.500 0.566636
282.500 0.572533
283.500 0.564277
284.500 0.548421
285.500 0.497707
286.500 0.560608
287.500 0.564015
288.500 0.572926
289.500 0.577775
291.000 0.607522
293.000 0.598742
295.000 0.592190
297.000 0.597038
299.000 0.604639
301.000 0.608177
303.000 0.613157
305.000 0.621413
307.000 0.618792
309.000 0.619447
311.000 0.620888
313.000 0.621544
315.000 0.623247
317.000 0.632551
319.000 0.613026
321.000 0.629668
323.000 0.617350
325.000 0.643428
327.000 0.665181
329.000 0.667409
331.000 0.669506
332.200 0.589438
332.300 0.553007
332.400 0.545145
332.500 0.557594
332.600 0.561132
332.700 0.554056
332.800 0.557987
332.900 0.563622
333.000 0.580527
333.100 0.595466
333.200 0.593893
333.300 0.597825
333.400 0.585113
333.500 0.575154
333.600 0.563753
333.700 0.556153
333.800 0.568602
333.900 0.578561
334.000 0.582755
334.100 0.584065
334.200 0.578430
334.300 0.591141
334.400 0.606474
334.500 0.606474
334.600 0.598349
334.700 0.569912
334.800 0.546193
334.900 0.531516
335.000 0.550387
335.100 0.558642
335.200 0.549338
335.300 0.550911
335.400 0.565850
335.500 0.597563
335.600 0.601363
335.700 0.580527
335.800 0.533220
335.900 0.488009
336.000 0.461407
336.100 0.472677
336.200 0.502686
336.300 0.541738
336.400 0.569388
336.500 0.560215
336.600 0.549993
336.700 0.547110
336.800 0.545276
336.900 0.545145
337.000 0.511335
337.100 0.479098
337.200 0.471629
337.300 0.493120
337.400 0.526930
337.500 0.560739
337.600 0.576464
337.700 0.572402
337.800 0.555497
337.900 0.540165
338.000 0.541738
338.100 0.550124
338.200 0.553401
338.300 0.558511
338.400 0.569126
338.500 0.582361
338.600 0.577906
338.700 0.552221
338.800 0.534006
338.900 0.557070
339.000 0.580396
339.100 0.595728
339.200 0.579741
339.300 0.556546
339.400 0.561656
339.500 0.576464
339.600 0.600708
339.700 0.614729
339.800 0.623903
339.900 0.626523
340.000 0.621806
340.100 0.610143
340.200 0.587472
340.300 0.579216
340.400 0.570567
340.500 0.578954
340.600 0.583279
340.700 0.575547
340.800 0.556677
340.900 0.556808
341.000 0.579085
341.100 0.577382
341.200 0.570567
341.300 0.554842
341.400 0.554056
341.500 0.576202
341.600 0.593369
341.700 0.601494
341.800 0.604770
341.900 0.604770
342.000 0.608177
342.100 0.609619
342.200 0.594024
342.300 0.573057
342.400 0.565588
342.500 0.572009
342.600 0.578430
342.700 0.589569
342.800 0.611191
342.900 0.632420
343.000 0.644870
343.100 0.626130
343.200 0.602673
343.300 0.587734
343.400 0.597956
343.500 0.622854
343.600 0.627703
343.700 0.613157
343.800 0.594155
343.900 0.577906
344.000 0.569257
344.100 0.556153
344.200 0.548421
344.300 0.546979
344.400 0.553663
344.500 0.564670
344.600 0.584982
344.700 0.614074
344.800 0.632814
344.900 0.642904
345.000 0.623378
345.100 0.593500
345.200 0.571354
345.300 0.567553
345.400 0.579347
345.500 0.590224
345.600 0.595728
345.700 0.600577
345.800 0.599135
345.900 0.593369
346.000 0.575940
346.100 0.562181
346.200 0.572402
346.300 0.580265
346.400 0.588389
346.500 0.580265
346.600 0.579478
346.700 0.597038
346.800 0.621282
346.900 0.639104
347.000 0.644870
347.100 0.634648
347.200 0.621413
347.300 0.593631
347.400 0.572271
347.500 0.564146
347.600 0.566243
347.700 0.592321
347.800 0.615516
347.900 0.626654
348.000 0.636352
348.100 0.633731
348.200 0.627310
348.300 0.623509
348.400 0.621151
348.500 0.629668
348.600 0.644083
348.700 0.643428
348.800 0.632027
348.900 0.611191
349.000 0.594680
349.100 0.605818
349.200 0.623247
349.300 0.622723
349.400 0.616957
349.500 0.607129
349.600 0.596645
349.700 0.599528
349.800 0.593238
349.900 0.594418
350.000 0.594942
350.100 0.594680
350.200 0.605294
350.300 0.609226
350.400 0.609619
350.500 0.600708
350.600 0.593631
350.700 0.591141
350.800 0.584720
350.900 0.589307
351.000 0.591535
351.100 0.592452
351.200 0.587341
351.300 0.580265
351.400 0.584327
351.500 0.597956
351.600 0.625606
351.700 0.645525
351.800 0.645263
351.900 0.622985
352.000 0.606343
352.100 0.597038
352.200 0.591403
352.300 0.582755
352.400 0.568864
352.500 0.560870
352.600 0.568864
352.700 0.582492
352.800 0.600315
352.900 0.615909
353.000 0.628620
353.100 0.639759
353.200 0.635303
353.300 0.612502
353.400 0.597169
353.500 0.591666
353.600 0.612502
353.700 0.643297
353.800 0.657450
353.900 0.662692
354.000 0.657188
354.100 0.650636
354.200 0.649456
354.300 0.659022
354.400 0.668458
354.500 0.664919
354.600 0.658498
354.700 0.648670
354.800 0.642904
354.900 0.646311
355.000 0.657581
355.100 0.671865
355.200 0.665968
355.300 0.646049
355.400 0.631765
355.500 0.633993
355.600 0.646442
355.700 0.664526
355.800 0.675534
355.900 0.673961
356.000 0.667409
356.100 0.663085
356.200 0.656008
356.300 0.643166
356.400 0.624558
356.500 0.607260
356.600 0.602673
356.700 0.606080
356.800 0.606736
356.900 0.603591
357.000 0.591797
357.100 0.579478
357.200 0.576595
357.300 0.578430
357.400 0.585375
357.500 0.596645
357.600 0.606998
357.700 0.616171
357.800 0.624820
357.900 0.620757
358.000 0.606474
358.100 0.590748
358.200 0.580134
358.300 0.582230
358.400 0.577775
358.500 0.562705
358.600 0.541476
358.700 0.530730
358.800 0.544752
358.900 0.574761
359.000 0.601101
359.100 0.611715
359.200 0.607784
359.300 0.605556
359.400 0.610929
359.500 0.627965
359.600 0.642249
359.700 0.647753
359.800 0.645918
359.900 0.643821
360.000 0.644083
360.100 0.631896
360.200 0.621675
360.300 0.618268
360.400 0.625868
360.500 0.629406
360.600 0.623640
360.700 0.614336
360.800 0.607260
360.900 0.608308
361.000 0.607784
361.100 0.611322
361.200 0.621151
361.300 0.627965
361.400 0.635828
361.500 0.657450
361.600 0.661119
361.700 0.650767
361.800 0.629275
361.900 0.608439
362.000 0.617088
362.100 0.633993
362.200 0.646180
362.300 0.652994
362.400 0.659022
362.500 0.676451
362.600 0.697681
362.700 0.716027
362.800 0.709999
362.900 0.683790
363.000 0.644345
363.100 0.621282
363.200 0.627834
363.300 0.649063
363.400 0.657319
363.500 0.652732
363.600 0.650636
363.700 0.663871
363.800 0.679990
363.900 0.687983
364.000 0.688901
364.100 0.681431
364.200 0.668458
364.300 0.658367
364.400 0.651422
364.500 0.648146
364.600 0.646049
364.700 0.645001
364.800 0.645263
364.900 0.641856
365.000 0.640283
365.100 0.642773
365.200 0.656139
365.300 0.670292
365.400 0.687590
365.500 0.703446
365.600 0.714192
365.700 0.719041
365.800 0.716420
365.900 0.715634
366.000 0.716027
366.100 0.704757
366.200 0.692177
366.300 0.683397
366.400 0.685231
366.500 0.693880
366.600 0.696108
366.700 0.693749
366.800 0.683135
366.900 0.674093
367.000 0.673568
367.100 0.680252
367.200 0.691128
367.300 0.698074
367.400 0.696501
367.500 0.690604
367.600 0.673437
367.700 0.653519
367.800 0.642249
367.900 0.644476
368.000 0.653256
368.100 0.658498
368.200 0.661643
368.300 0.661905
368.400 0.662299
368.500 0.651946
368.600 0.646180
368.700 0.651815
368.800 0.673961
368.900 0.698336
369.000 0.697681
369.100 0.690342
369.200 0.685362
369.300 0.689818
369.400 0.698205
369.500 0.705412
369.600 0.700957
369.700 0.685887
369.800 0.695453
369.900 0.718386
370.000 0.745643
370.100 0.745512
370.200 0.704364
370.300 0.654305
370.400 0.619316
370.500 0.615123
370.600 0.630455
370.700 0.655353
370.800 0.674224
370.900 0.673699
371.000 0.651029
371.100 0.627048
371.200 0.621413
371.300 0.647097
371.400 0.697156
371.500 0.740532
371.600 0.768445
371.700 0.776307
371.800 0.757699
371.900 0.703053
372.000 0.626130
372.100 0.566243
372.200 0.558118
372.300 0.595597
372.400 0.670685
372.500 0.725200
372.600 0.753636
372.700 0.766348
372.800 0.773686
372.900 0.776307
373.000 0.771065
373.100 0.738566
373.200 0.665181
373.300 0.588258
373.400 0.529419
373.500 0.516184
373.600 0.557856
373.700 0.625475
373.800 0.690866
373.900 0.757699
374.000 0.797143
374.100 0.815096
374.200 0.803040
374.300 0.785218
374.400 0.758616
374.500 0.729655
374.600 0.702660
374.700 0.669113
374.800 0.620102
374.900 0.576202
375.000 0.553401
375.100 0.573712
375.200 0.622723
375.300 0.710523
375.400 0.773162
375.500 0.809068
375.600 0.821911
375.700 0.808282
375.800 0.793343
375.900 0.787446
376.000 0.788887
376.100 0.805006
376.200 0.816931
376.300 0.815620
376.400 0.806578
376.500 0.785480
376.600 0.762023
376.700 0.727952
376.800 0.669768
376.900 0.614205
377.000 0.567160
377.100 0.573844
377.200 0.622199
377.300 0.690604
377.400 0.742629
377.500 0.780763
377.600 0.799633
377.700 0.825842
377.800 0.858341
377.900 0.890054
378.000 0.923077
378.100 0.937099
378.200 0.938016
378.300 0.931726
378.400 0.927401
378.500 0.916263
378.600 0.904338
378.700 0.880356
378.800 0.863190
378.900 0.855851
379.000 0.850740
379.100 0.842616
379.200 0.819552
379.300 0.789018
379.400 0.742105
379.500 0.681824
379.600 0.617743
379.700 0.554449
379.800 0.530599
379.900 0.565850
380.000 0.645918
380.100 0.724151
380.200 0.792032
380.300 0.824269
380.400 0.855065
380.500 0.866466
380.600 0.875639
380.700 0.890840
380.800 0.912724
380.900 0.940899
381.000 0.960556
381.100 0.965666
381.200 0.944568
381.300 0.920325
381.400 0.899751
381.500 0.898965
381.600 0.916263
381.700 0.938409
381.800 0.945486
381.900 0.922553
382.000 0.899096
382.100 0.889661
382.200 0.895820
382.300 0.892544
382.400 0.866597
382.500 0.839995
382.600 0.817717
382.700 0.801861
382.800 0.778404
382.900 0.759665
383.000 0.741318
383.100 0.704102
383.200 0.662299
383.300 0.589045
383.400 0.528109
383.500 0.497969
383.600 0.508059
383.700 0.545145
383.800 0.603722
383.900 0.652077
384.000 0.699515
384.100 0.751409
384.200 0.797667
384.300 0.848906
384.400 0.880881
384.500 0.903551
384.600 0.923994
384.700 0.945354
384.800 0.957673
384.900 0.955052
385.000 0.953217
385.100 0.966846
385.200 0.992662
385.300 1.015070
385.400 1.017167
385.500 1.004849
385.600 0.989123
385.700 0.977329
385.800 0.965011
385.900 0.962390
386.000 0.974708
386.100 0.995676
386.200 1.011925
386.300 1.019395
386.400 1.014677
386.500 1.006421
386.600 1.006290
386.700 1.010615
386.800 1.015201
386.900 1.013891
387.000 0.998690
387.100 0.980343
387.200 0.953217
387.300 0.939720
387.400 0.935919
387.500 0.941554
387.600 0.937361
387.700 0.911283
387.800 0.886516
387.900 0.871839
388.000 0.876687
388.100 0.875508
388.200 0.855458
388.300 0.830691
388.400 0.790460
388.500 0.744463
388.600 0.682610
388.700 0.606080
388.800 0.551435
388.900 0.538593
389.000 0.575154
389.100 0.647359
389.200 0.713668
389.300 0.752981
389.400 0.783253
389.500 0.807627
389.600 0.840912
389.700 0.865417
389.800 0.883764
389.900 0.895033
390.000 0.906827
390.100 0.924781
390.200 0.933429
390.300 0.941816
390.400 0.937885
390.500 0.937492
390.600 0.949286
390.700 0.974315
390.800 1.007338
390.900 1.033678
391.000 1.047831
391.100 1.051500
391.200 1.049928
391.300 1.041672
391.400 1.029747
391.500 1.026471
391.600 1.030402
391.700 1.030402
391.800 1.023719
391.900 1.014284
392.000 1.010221
392.100 1.010090
392.200 1.012580
392.300 1.019919
392.400 1.021360
392.500 1.016905
392.600 0.993055
392.700 0.960949
392.800 0.915738
392.900 0.863452
393.000 0.792426
393.100 0.686411
393.200 0.563360
393.300 0.469794
393.400 0.456297
393.500 0.544359
393.600 0.671341
393.700 0.786791
393.800 0.881929
393.900 0.936181
394.000 0.969991
394.100 0.990041
394.200 0.995807
394.300 0.992793
394.400 0.995676
394.500 1.001048
394.600 1.010877
394.700 1.014284
394.800 1.007732
394.900 0.998034
395.000 0.991875
395.100 0.987551
395.200 0.984275
395.300 0.991482
395.400 0.989385
395.500 0.980212
395.600 0.965535
395.700 0.948762
395.800 0.945748
395.900 0.936968
396.000 0.910890
396.100 0.877736
396.200 0.833967
396.300 0.795833
396.400 0.749705
396.500 0.674355
396.600 0.573844
396.700 0.445027
396.800 0.353558
396.900 0.318307
397.000 0.365090
397.100 0.460490
397.200 0.572140
397.300 0.654174
397.400 0.730311
397.500 0.781942
397.600 0.831215
397.700 0.868038
397.800 0.899882
397.900 0.930284
398.000 0.944175
398.100 0.954134
398.200 0.963439
398.300 0.977198
398.400 0.995020
398.500 1.011925
398.600 1.027519
398.700 1.041279
398.800 1.057004
398.900 1.061329
399.000 1.063819
399.100 1.070109
399.200 1.077054
399.300 1.088848
399.400 1.092910
399.500 1.088324
399.600 1.071288
399.700 1.059625
399.800 1.060674
399.900 1.078102
400.000 1.092779
400.100 1.102608
400.200 1.104311
400.300 1.096449
400.400 1.082427
400.500 1.069454
400.600 1.072074
400.700 1.087669
400.800 1.108767
400.900 1.120561
401.000 1.125278
401.100 1.124361
401.200 1.119906
401.300 1.117416
401.400 1.118202
401.500 1.126196
401.600 1.132486
401.700 1.137072
401.800 1.143232
401.900 1.147687
402.000 1.152405
402.100 1.149915
402.200 1.144149
402.300 1.136810
402.400 1.129079
402.500 1.129734
402.600 1.138121
402.700 1.153191
402.800 1.153977
402.900 1.144673
403.000 1.124361
403.100 1.109815
403.200 1.103263
403.300 1.106146
403.400 1.116236
403.500 1.133141
403.600 1.151487
403.700 1.171668
403.800 1.176779
403.900 1.171144
404.000 1.163412
404.100 1.157909
404.200 1.157777
404.300 1.148211
404.400 1.119381
404.500 1.094483
404.600 1.087931
404.700 1.109160
404.800 1.136679
404.900 1.155550
405.000 1.157253
405.100 1.158171
405.200 1.152798
405.300 1.143625
405.400 1.134583
405.500 1.129996
405.600 1.131438
405.700 1.132224
405.800 1.135631
405.900 1.149784
406.000 1.157909
406.100 1.149653
406.200 1.121347
406.300 1.095138
406.400 1.083344
406.500 1.080985
406.600 1.087013
406.700 1.092910
406.800 1.095269
406.900 1.093435
407.000 1.083999
407.100 1.064867
407.200 1.055825
407.300 1.062639
407.400 1.071157
407.500 1.069191
407.600 1.045603
407.700 1.023981
407.800 1.014415
407.900 1.028699
408.000 1.051500
408.100 1.067095
408.200 1.067095
408.300 1.057266
408.400 1.045472
408.500 1.034203
408.600 1.034727
408.700 1.037217
408.800 1.039706
408.900 1.037741
409.000 1.025161
409.100 1.015987
409.200 1.008387
409.300 0.989779
409.400 0.970777
409.500 0.936706
409.600 0.907745
409.700 0.873542
409.800 0.828070
409.900 0.771983
410.000 0.684052
410.100 0.625344
410.200 0.611977
410.300 0.667933
410.400 0.743677
410.500 0.819028
410.600 0.860438
410.700 0.896344
410.800 0.917049
410.900 0.935526
411.000 0.955445
411.100 0.971301
411.200 0.992137
411.300 1.007601
411.400 1.024898
411.500 1.041279
411.600 1.048749
411.700 1.047831
411.800 1.042065
411.900 1.037741
412.000 1.040755
412.100 1.050190
412.200 1.061067
412.300 1.069191
412.400 1.077185
412.500 1.082034
412.600 1.082820
412.700 1.081772
412.800 1.082165
412.900 1.085834
413.000 1.084524
413.100 1.074564
413.200 1.063557
413.300 1.065522
413.400 1.080330
413.500 1.095925
413.600 1.108767
413.700 1.119119
413.800 1.130389
413.900 1.140873
414.000 1.139824
414.100 1.126327
414.200 1.106015
414.300 1.087538
414.400 1.086096
414.500 1.095531
414.600 1.111650
414.700 1.116761
414.800 1.119381
414.900 1.122002
415.000 1.124754
415.100 1.127899
415.200 1.123837
415.300 1.116367
415.400 1.108767
415.500 1.104180
