# Wavelength (nm)   F_lamA (normalized erg/cm2/s/A)9.100 0.000000
9.400 0.000000
9.600 0.000000
9.800 0.000000
10.000 0.000000
10.200 0.000000
10.400 0.000000
10.600 0.000001
10.800 0.000001
11.000 0.000001
11.400 0.000003
11.800 0.000007
12.100 0.000012
12.500 0.000024
12.700 0.000029
12.800 0.000032
13.100 0.000050
13.200 0.000057
13.400 0.000077
13.700 0.000112
14.000 0.000163
14.300 0.000221
14.700 0.000346
15.100 0.000529
15.500 0.000792
15.900 0.001150
16.200 0.002117
16.600 0.002947
17.000 0.004038
17.300 0.005046
17.700 0.006726
18.000 0.008431
18.200 0.010480
18.600 0.013533
19.100 0.018279
19.400 0.021875
19.800 0.027292
20.200 0.033967
20.500 0.039719
21.000 0.050924
21.600 0.066486
22.000 0.079194
22.300 0.089719
22.700 0.106612
23.000 0.680254
23.400 10.389493
24.000 57.608696
24.600 56.838768
25.200 69.094203
25.700 33.070652
26.000 73.559783
26.400 108.967391
26.900 113.586957
27.400 115.760870
27.900 104.438406
28.400 120.018116
29.000 119.293478
29.600 107.608696
30.100 68.976449
30.800 87.346014
31.800 118.025362
32.800 120.923913
33.800 115.489130
34.800 110.960145
35.700 124.547101
36.600 149.365942
37.500 146.739130
38.500 127.807971
39.500 151.177536
40.500 165.942029
41.400 163.224638
42.200 153.351449
43.000 146.739130
44.100 157.880435
45.100 156.974638
46.000 144.746377
47.000 143.206522
48.000 149.184783
49.000 135.326087
50.000 147.826087
50.600 134.329710
51.200 163.586957
52.000 156.250000
53.000 146.920290
54.000 127.717391
55.000 120.561594
56.000 138.677536
57.000 143.297101
58.000 138.858696
59.000 137.590580
60.000 125.181159
61.000 107.699275
62.000 129.891304
63.000 121.648551
64.000 127.264493
65.000 121.467391
65.800 114.311594
66.500 120.380435
67.500 120.199275
68.500 109.873188
69.500 114.764493
70.500 102.536232
71.600 110.869565
72.600 109.782609
73.500 107.971014
74.500 103.804348
75.500 100.905797
76.500 89.157609
77.500 96.739130
78.500 89.302536
79.500 91.485507
80.500 91.938406
81.500 90.570652
82.500 89.166667
83.500 78.260870
84.500 85.326087
85.500 82.545290
86.500 82.590580
87.500 81.195652
88.500 79.257246
89.500 77.817029
90.500 75.552536
91.500 68.487319
92.500 103.894928
93.500 138.677536
94.500 165.126812
95.500 176.721014
96.500 188.677536
97.500 131.793478
98.500 169.202899
99.500 153.894928
100.500 159.329710
101.500 159.329710
102.500 119.655797
103.500 153.079710
104.500 161.050725
105.500 155.887681
106.500 145.108696
107.500 146.014493
108.500 127.626812
109.500 140.307971
110.500 134.963768
111.500 131.793478
112.500 123.913043
113.500 126.449275
114.500 123.097826
115.500 118.478261
116.500 113.949275
117.500 98.641304
118.500 107.065217
119.500 102.536232
120.500 98.550725
121.500 73.931159
122.500 93.931159
123.500 94.565217
124.500 92.844203
125.500 92.300725
126.500 91.032609
127.500 90.534420
128.500 89.248188
129.500 85.833333
130.500 83.777174
131.500 84.094203
132.500 81.603261
133.500 79.646739
134.500 78.777174
135.500 76.186594
136.500 73.251812
137.500 71.023551
138.500 70.108696
139.500 59.257246
140.500 52.708333
141.500 66.177536
142.500 62.817029
143.500 63.750000
144.200 62.273551
144.700 61.721014
145.500 60.045290
146.500 58.894928
147.500 57.998188
148.500 57.626812
149.500 56.114130
150.500 54.882246
151.200 53.713768
151.700 53.125000
152.500 52.436594
153.500 48.759058
154.500 42.454710
155.500 42.925725
156.500 45.851449
157.500 46.349638
158.500 45.597826
159.500 45.126812
160.500 43.315217
161.500 42.155797
162.500 41.784420
163.500 41.313406
164.500 39.864130
165.500 40.643116
166.500 40.054348
167.200 38.351449
167.700 40.271739
168.500 39.402174
169.500 38.541667
170.500 37.563406
171.500 36.313406
172.500 35.507246
173.500 35.887681
174.500 35.208333
175.500 34.556159
176.500 33.903986
177.500 33.188406
178.500 32.961957
179.500 32.291667
180.500 31.875000
181.500 31.050725
182.500 30.597826
183.500 30.163043
184.500 29.293478
185.500 28.913043
186.500 28.596014
187.500 28.143116
188.500 27.264493
189.500 26.829710
190.500 26.766304
191.500 26.141304
192.500 25.208333
193.500 25.480072
194.500 25.244565
195.500 24.248188
196.700 24.284420
197.600 24.121377
198.400 23.632246
199.500 23.125000
200.500 22.871377
201.500 22.527174
202.500 22.300725
203.500 21.711957
204.500 21.358696
205.500 17.536232
206.500 18.469203
207.400 20.679348
207.800 20.471014
208.500 20.380435
209.500 19.945652
210.500 19.728261
211.500 19.655797
212.500 19.329710
213.500 19.057971
214.500 18.677536
215.500 18.614130
216.500 18.007246
217.500 18.043478
218.500 17.572464
219.500 17.581522
220.500 17.300725
221.500 16.802536
222.500 16.730072
223.500 16.512681
224.500 16.259058
225.500 15.806159
226.500 15.806159
227.500 15.606884
228.500 15.317029
229.500 14.891304
230.500 14.673913
231.500 14.610507
232.500 14.175725
233.500 14.211957
234.500 14.003623
235.500 13.804348
236.500 13.586957
237.500 13.360507
238.500 12.871377
239.500 12.961957
240.500 12.780797
241.500 12.635870
242.500 12.527174
243.500 12.300725
244.500 12.164855
245.500 11.965580
246.500 11.829710
247.500 11.684783
248.500 11.494565
249.500 10.561594
250.500 11.150362
251.300 10.525362
251.800 10.878623
252.500 10.851449
253.500 10.760870
254.500 10.606884
255.500 10.480072
256.500 10.353261
257.500 10.226449
258.500 10.099638
259.500 9.909420
260.500 9.836957
261.500 9.673913
262.500 9.583333
263.500 9.465580
264.500 9.356884
265.500 9.248188
266.500 9.094203
267.500 8.958333
268.500 8.886775
269.500 8.737319
270.500 8.662138
271.500 8.537138
272.500 8.430254
273.500 8.173007
274.500 8.223732
275.500 8.124094
276.500 8.017210
277.500 7.949275
278.500 7.832428
279.500 7.661232
280.500 7.623188
281.500 7.567935
282.500 7.461051
283.500 7.351449
284.500 7.290761
285.500 7.201087
286.500 7.113225
287.500 7.026268
288.500 6.950181
289.500 6.866848
291.000 6.745471
293.000 6.595109
295.000 6.426630
297.000 6.280797
299.000 6.125000
301.000 5.979167
303.000 5.836957
305.000 5.716486
307.000 5.584239
309.000 5.460145
311.000 5.346014
313.000 5.216486
315.000 5.110507
317.000 4.992754
319.000 4.876812
321.000 4.730072
323.000 4.679348
325.000 4.581522
327.000 4.462862
329.000 4.382246
331.000 4.289855
332.200 4.253623
332.300 4.273551
332.400 4.254529
332.500 4.238225
332.600 4.211957
332.700 4.194746
332.800 4.173007
332.900 4.170290
333.000 4.168478
333.100 4.161232
333.200 4.144022
333.300 4.117754
333.400 4.103261
333.500 4.086051
333.600 4.059783
333.700 4.052536
333.800 4.056159
333.900 4.050725
334.000 4.029891
334.100 4.032609
334.200 4.048913
334.300 4.122283
334.400 4.158514
334.500 4.190217
334.600 4.215580
334.700 4.234601
334.800 4.193841
334.900 4.124094
335.000 3.972826
335.100 3.935688
335.200 3.952899
335.300 3.960145
335.400 3.951087
335.500 3.939312
335.600 3.951087
335.700 3.971920
335.800 3.990942
335.900 4.000906
336.000 4.000906
336.100 3.993659
336.200 3.992754
336.300 3.975543
336.400 3.960145
336.500 3.921196
336.600 3.894022
336.700 3.875000
336.800 3.878623
336.900 3.887681
337.000 3.908514
337.100 3.897645
337.200 3.861413
337.300 3.861413
337.400 3.876812
337.500 3.899457
337.600 3.902174
337.700 3.874094
337.800 3.875906
337.900 3.887681
338.000 3.923913
338.100 3.950181
338.200 3.948370
338.300 3.934783
338.400 3.917572
338.500 3.945652
338.600 3.982790
338.700 4.008152
338.800 4.002717
338.900 3.957428
339.000 3.941123
339.100 3.935688
339.200 3.965580
339.300 3.990942
339.400 4.042572
339.500 4.036232
339.600 3.996377
339.700 3.947464
339.800 3.903986
339.900 3.819746
340.000 3.769928
340.100 3.769928
340.200 3.765399
340.300 3.757246
340.400 3.776268
340.500 3.786232
340.600 3.778986
340.700 3.776268
340.800 3.782609
340.900 3.790761
341.000 3.798007
341.100 3.759964
341.200 3.758152
341.300 3.781703
341.400 3.807971
341.500 3.826993
341.600 3.820652
341.700 3.816123
341.800 3.815217
341.900 3.818841
342.000 3.817029
342.100 3.822464
342.200 3.822464
342.300 3.831522
342.400 3.826993
342.500 3.815217
342.600 3.814312
342.700 3.816123
342.800 3.837862
342.900 3.835145
343.000 3.809783
343.100 3.803442
343.200 3.795290
343.300 3.794384
343.400 3.796196
343.500 3.814312
343.600 3.816123
343.700 3.809783
343.800 3.781703
343.900 3.758152
344.000 3.708333
344.100 3.696558
344.200 3.701993
344.300 3.731884
344.400 3.753623
344.500 3.720109
344.600 3.700181
344.700 3.688406
344.800 3.708333
344.900 3.733696
345.000 3.663043
345.100 3.611413
345.200 3.591486
345.300 3.597826
345.400 3.609601
345.500 3.605072
345.600 3.598732
345.700 3.591486
345.800 3.586051
345.900 3.576993
346.000 3.571558
346.100 3.575181
346.200 3.601449
346.300 3.692935
346.400 3.646739
346.500 3.641304
346.600 3.652174
346.700 3.644022
346.800 3.629529
346.900 3.634058
347.000 3.637681
347.100 3.585145
347.200 3.573370
347.300 3.616848
347.400 3.616848
347.500 3.602355
347.600 3.580616
347.700 3.517210
347.800 3.456522
347.900 3.444746
348.000 3.479167
348.100 3.525362
348.200 3.510870
348.300 3.470109
348.400 3.480978
348.500 3.546196
348.600 3.561594
348.700 3.569746
348.800 3.604167
348.900 3.620471
349.000 3.603261
349.100 3.596014
349.200 3.617754
349.300 3.613225
349.400 3.611413
349.500 3.602355
349.600 3.567935
349.700 3.565217
349.800 3.580616
349.900 3.575181
350.000 3.522645
350.100 3.457428
350.200 3.459239
350.300 3.473732
350.400 3.454710
350.500 3.425725
350.600 3.420290
350.700 3.432971
350.800 3.441123
350.900 3.433877
351.000 3.429348
351.100 3.428442
351.200 3.415761
351.300 3.402174
351.400 3.413043
351.500 3.416667
351.600 3.433877
351.700 3.417572
351.800 3.413949
351.900 3.423007
352.000 3.425725
352.100 3.424819
352.200 3.420290
352.300 3.416667
352.400 3.443841
352.500 3.409420
352.600 3.402174
352.700 3.403080
352.800 3.413949
352.900 3.423913
353.000 3.423913
353.100 3.433877
353.200 3.445652
353.300 3.424819
353.400 3.394022
353.500 3.391304
353.600 3.398551
353.700 3.375906
353.800 3.369565
353.900 3.368659
354.000 3.389493
354.100 3.405797
354.200 3.400362
354.300 3.386775
354.400 3.392210
354.500 3.400362
354.600 3.387681
354.700 3.398551
354.800 3.414855
354.900 3.420290
355.000 3.394928
355.100 3.372283
355.200 3.377717
355.300 3.393116
355.400 3.391304
355.500 3.372283
355.600 3.355072
355.700 3.364130
355.800 3.377717
355.900 3.377717
356.000 3.369565
356.100 3.377717
356.200 3.397645
356.300 3.386775
356.400 3.368659
356.500 3.390399
356.600 3.406703
356.700 3.374094
356.800 3.372283
356.900 3.355072
357.000 3.319746
357.100 3.238225
357.200 3.223732
357.300 3.233696
357.400 3.221014
357.500 3.217391
357.600 3.228261
357.700 3.229167
357.800 3.221920
357.900 3.211051
358.000 3.222826
358.100 3.233696
358.200 3.230978
358.300 3.221014
358.400 3.215580
358.500 3.214674
358.600 3.207428
358.700 3.192935
358.800 3.177536
358.900 3.169384
359.000 3.191123
359.100 3.205616
359.200 3.195652
359.300 3.198370
359.400 3.203804
359.500 3.191123
359.600 3.179348
359.700 3.182971
359.800 3.185688
359.900 3.193841
360.000 3.220109
360.100 3.216486
360.200 3.221014
360.300 3.205616
360.400 3.191123
360.500 3.190217
360.600 3.188406
360.700 3.187500
360.800 3.199275
360.900 3.208333
361.000 3.201993
361.100 3.166667
361.200 3.165761
361.300 3.158514
361.400 3.134964
361.500 3.139493
361.600 3.163043
361.700 3.178442
361.800 3.190217
361.900 3.192029
362.000 3.164855
362.100 3.155797
362.200 3.180254
362.300 3.180254
362.400 3.168478
362.500 3.166667
362.600 3.177536
362.700 3.176630
362.800 3.157609
362.900 3.144022
363.000 3.163043
363.100 3.182971
363.200 3.171196
363.300 3.145833
363.400 3.145833
363.500 3.128623
363.600 3.068841
363.700 3.051630
363.800 3.062500
363.900 3.063406
364.000 3.069746
364.100 3.090580
364.200 3.099638
364.300 3.076087
364.400 3.043478
364.500 3.038043
364.600 3.048007
364.700 3.056159
364.800 3.062500
364.900 3.068841
365.000 3.062500
365.100 3.042572
365.200 3.034420
365.300 3.030797
365.400 3.025362
365.500 3.034420
365.600 3.033514
365.700 3.024457
365.800 3.022645
365.900 3.018116
366.000 3.009964
366.100 3.001812
366.200 2.997283
366.300 3.003623
366.400 3.005435
366.500 2.998188
366.600 2.993659
366.700 2.981884
366.800 2.974638
366.900 2.976449
367.000 2.981884
367.100 2.982790
367.200 2.973732
367.300 2.964674
367.400 2.962862
367.500 2.961957
367.600 2.974638
367.700 2.958333
367.800 2.950181
367.900 2.947464
368.000 2.944746
368.100 2.951087
368.200 2.953804
368.300 2.946558
368.400 2.933877
368.500 2.930254
368.600 2.931159
368.700 2.928442
368.800 2.930254
368.900 2.935688
369.000 2.924819
369.100 2.913043
369.200 2.922101
369.300 2.928442
369.400 2.901268
369.500 2.884058
369.600 2.879529
369.700 2.873188
369.800 2.871377
369.900 2.889493
370.000 2.913949
370.100 2.897645
370.200 2.847826
370.300 2.793478
370.400 2.749094
370.500 2.740036
370.600 2.768116
370.700 2.813406
370.800 2.832428
370.900 2.824275
371.000 2.790761
371.100 2.747283
371.200 2.721014
371.300 2.720109
371.400 2.760870
371.500 2.825181
371.600 2.856884
371.700 2.847826
371.800 2.840580
371.900 2.780797
372.000 2.706522
372.100 2.666667
372.200 2.663949
372.300 2.699275
372.400 2.738225
372.500 2.762681
372.600 2.779891
372.700 2.807971
372.800 2.828804
372.900 2.836051
373.000 2.830616
373.100 2.781703
373.200 2.717391
373.300 2.632246
373.400 2.569746
373.500 2.560688
373.600 2.609601
373.700 2.682971
373.800 2.761775
373.900 2.830616
374.000 2.871377
374.100 2.894928
374.200 2.888587
374.300 2.858696
374.400 2.843297
374.500 2.821558
374.600 2.769928
374.700 2.692029
374.800 2.588768
374.900 2.487319
375.000 2.447464
375.100 2.480978
375.200 2.548007
375.300 2.610507
375.400 2.669384
375.500 2.721920
375.600 2.759058
375.700 2.772645
375.800 2.774457
375.900 2.766304
376.000 2.745471
376.100 2.736413
376.200 2.788949
376.300 2.807971
376.400 2.782609
376.500 2.733696
376.600 2.673007
376.700 2.598732
376.800 2.511775
376.900 2.412138
377.000 2.319746
377.100 2.297101
377.200 2.367754
377.300 2.469203
377.400 2.563406
377.500 2.638587
377.600 2.687500
377.700 2.724638
377.800 2.740942
377.900 2.751812
378.000 2.763587
378.100 2.777174
378.200 2.794384
378.300 2.790761
378.400 2.782609
378.500 2.801630
378.600 2.810688
378.700 2.800725
378.800 2.782609
378.900 2.750906
379.000 2.716486
379.100 2.682065
379.200 2.659420
379.300 2.629529
379.400 2.556159
379.500 2.467391
379.600 2.335145
379.700 2.222826
379.800 2.176630
379.900 2.231884
380.000 2.354167
380.100 2.480978
380.200 2.553442
380.300 2.609601
380.400 2.650362
380.500 2.692029
380.600 2.686594
380.700 2.693841
380.800 2.718297
380.900 2.739130
381.000 2.756341
381.100 2.765399
381.200 2.757246
381.300 2.754529
381.400 2.759964
381.500 2.750906
381.600 2.721920
381.700 2.705616
381.800 2.663043
381.900 2.620471
382.000 2.582428
382.100 2.588768
382.200 2.645833
382.300 2.692029
382.400 2.703804
382.500 2.701087
382.600 2.678442
382.700 2.677536
382.800 2.663043
382.900 2.617754
383.000 2.549819
383.100 2.483696
383.200 2.403986
383.300 2.286232
383.400 2.156703
383.500 2.060688
383.600 2.066123
383.700 2.170290
383.800 2.294384
383.900 2.403080
384.000 2.488225
384.100 2.541667
384.200 2.585145
384.300 2.629529
384.400 2.673007
384.500 2.706522
384.600 2.697464
384.700 2.696558
384.800 2.693841
384.900 2.710145
385.000 2.711051
385.100 2.720109
385.200 2.725543
385.300 2.721014
385.400 2.711957
385.500 2.698370
385.600 2.683877
385.700 2.669384
385.800 2.674819
385.900 2.707428
386.000 2.719203
386.100 2.722826
386.200 2.687500
386.300 2.653080
386.400 2.638587
386.500 2.629529
386.600 2.628623
386.700 2.631341
386.800 2.633152
386.900 2.628623
387.000 2.623188
387.100 2.615942
387.200 2.608696
387.300 2.612319
387.400 2.618659
387.500 2.618659
387.600 2.605072
387.700 2.592391
387.800 2.598732
387.900 2.603261
388.000 2.603261
388.100 2.574275
388.200 2.537138
388.300 2.493659
388.400 2.451087
388.500 2.383152
388.600 2.264493
388.700 2.122283
388.800 1.972826
388.900 1.914855
389.000 1.985507
389.100 2.149457
389.200 2.280797
389.300 2.390399
389.400 2.454710
389.500 2.504529
389.600 2.544384
389.700 2.570652
389.800 2.593297
389.900 2.603261
390.000 2.618659
390.100 2.632246
390.200 2.638587
390.300 2.644928
390.400 2.651268
390.500 2.660326
390.600 2.653986
390.700 2.654891
390.800 2.670290
390.900 2.671196
391.000 2.653986
391.100 2.653986
391.200 2.657609
391.300 2.644928
391.400 2.650362
391.500 2.665761
391.600 2.664855
391.700 2.659420
391.800 2.641304
391.900 2.609601
392.000 2.590580
392.100 2.586957
392.200 2.576993
392.300 2.550725
392.400 2.545290
392.500 2.559783
392.600 2.565217
392.700 2.571558
392.800 2.577899
392.900 2.588768
393.000 2.594203
393.100 2.560688
393.200 2.412138
393.300 2.186594
393.400 2.212862
393.500 2.436594
393.600 2.559783
393.700 2.603261
393.800 2.609601
393.900 2.605072
394.000 2.605072
394.100 2.610507
394.200 2.607790
394.300 2.594203
394.400 2.575181
394.500 2.536232
394.600 2.521739
394.700 2.528080
394.800 2.533514
394.900 2.535326
395.000 2.532609
395.100 2.522645
395.200 2.514493
395.300 2.509058
395.400 2.493659
395.500 2.476449
395.600 2.469203
395.700 2.464674
395.800 2.457428
395.900 2.451993
396.000 2.447464
396.100 2.434783
396.200 2.410326
396.300 2.366848
396.400 2.310688
396.500 2.252717
396.600 2.154891
396.700 1.952899
396.800 1.716486
396.900 1.638587
397.000 1.682065
397.100 1.798913
397.200 1.937500
397.300 2.077899
397.400 2.168478
397.500 2.240036
397.600 2.298007
397.700 2.325181
397.800 2.345109
397.900 2.370471
398.000 2.385870
398.100 2.399457
398.200 2.403986
398.300 2.393116
398.400 2.390399
398.500 2.403080
398.600 2.368659
398.700 2.317029
398.800 2.394928
398.900 2.421196
399.000 2.435688
399.100 2.444746
399.200 2.446558
399.300 2.439312
399.400 2.427536
399.500 2.422101
399.600 2.413949
399.700 2.418478
399.800 2.427536
399.900 2.431159
400.000 2.409420
400.100 2.402174
400.200 2.404891
400.300 2.403986
400.400 2.400362
400.500 2.400362
400.600 2.396739
400.700 2.387681
400.800 2.381341
400.900 2.363225
401.000 2.351449
401.100 2.366848
401.200 2.388587
401.300 2.400362
401.400 2.406703
401.500 2.404891
401.600 2.398551
401.700 2.403080
401.800 2.412138
401.900 2.415761
402.000 2.408514
402.100 2.394928
402.200 2.387681
402.300 2.358696
402.400 2.290761
402.500 2.220109
402.600 2.174819
402.700 2.198370
402.800 2.270833
402.900 2.343297
403.000 2.386775
403.100 2.398551
403.200 2.402174
403.300 2.402174
403.400 2.402174
403.500 2.404891
403.600 2.401268
403.700 2.395833
403.800 2.391304
403.900 2.382246
404.000 2.387681
404.100 2.399457
404.200 2.395833
404.300 2.389493
404.400 2.387681
404.500 2.384964
404.600 2.385870
404.700 2.390399
404.800 2.394928
404.900 2.394928
405.000 2.387681
405.100 2.389493
405.200 2.401268
405.300 2.397645
405.400 2.395833
405.500 2.396739
405.600 2.389493
405.700 2.387681
405.800 2.391304
405.900 2.391304
406.000 2.384058
406.100 2.366848
406.200 2.358696
406.300 2.370471
406.400 2.322464
406.500 2.207428
406.600 2.239130
406.700 2.288043
406.800 2.282609
406.900 2.261775
407.000 2.240942
407.100 2.240036
407.200 2.258152
407.300 2.256341
407.400 2.262681
407.500 2.260870
407.600 2.247283
407.700 2.247283
407.800 2.259058
407.900 2.271739
408.000 2.277174
408.100 2.276268
408.200 2.272645
408.300 2.269928
408.400 2.250906
408.500 2.243659
408.600 2.240036
408.700 2.246377
408.800 2.248188
408.900 2.232790
409.000 2.214674
409.100 2.209239
409.200 2.211957
409.300 2.192935
409.400 2.160326
409.500 2.115036
409.600 2.068841
409.700 2.012681
409.800 1.932065
409.900 1.826993
410.000 1.709239
410.100 1.606884
410.200 1.582428
410.300 1.655797
410.400 1.809783
410.500 1.938406
410.600 2.020833
410.700 2.067935
410.800 2.107790
410.900 2.133152
411.000 2.151268
411.100 2.167572
411.200 2.175725
411.300 2.184783
411.400 2.204710
411.500 2.225543
411.600 2.226449
411.700 2.215580
411.800 2.199275
411.900 2.185688
412.000 2.175725
412.100 2.169384
412.200 2.174819
412.300 2.197464
412.400 2.214674
412.500 2.224638
412.600 2.227355
412.700 2.220109
412.800 2.206522
412.900 2.205616
413.000 2.211051
413.100 2.215580
413.200 2.212862
413.300 2.205616
413.400 2.207428
413.500 2.218297
