# Wavelength (nm)   F_lamA (normalized erg/cm2/s/A)9.100 0.001442
9.400 0.001616
9.600 0.001734
9.800 0.001854
10.000 0.001976
10.200 0.002100
10.400 0.002225
10.600 0.002352
10.800 0.002481
11.000 0.002612
11.400 0.002883
11.800 0.003171
12.100 0.003401
12.500 0.003732
12.700 0.003911
12.800 0.004006
13.100 0.004307
13.200 0.004413
13.400 0.004641
13.700 0.005012
14.000 0.005430
14.300 0.005905
14.700 0.006631
15.100 0.007491
15.500 0.008506
15.900 0.009699
16.200 0.010727
16.600 0.012297
17.000 0.014117
17.300 0.015663
17.700 0.017988
18.000 0.019943
18.200 0.021353
18.600 0.024445
19.100 0.028858
19.400 0.031787
19.800 0.036100
20.200 0.040846
20.500 0.044725
21.000 0.051749
21.600 0.061215
22.000 0.068131
22.300 0.073691
22.700 0.081503
23.000 1.892596
23.400 2.117711
24.000 2.720369
24.600 3.669650
25.200 4.616219
25.700 3.672362
26.000 5.126119
26.400 6.465961
26.900 6.666667
27.400 6.802278
27.900 6.373746
28.400 7.005696
29.000 7.000271
29.600 6.330350
30.100 4.138866
30.800 5.107133
31.800 6.563602
32.800 6.582587
33.800 6.400868
34.800 6.240846
35.700 6.436127
36.600 6.715487
37.500 6.585300
38.500 6.099810
39.500 6.414429
40.500 6.517494
41.400 6.438839
42.200 6.243558
43.000 6.099810
44.100 6.202875
45.100 6.124220
46.000 5.915378
47.000 5.815026
48.000 5.806889
49.000 5.576349
50.000 5.633306
50.600 6.121508
51.200 7.694603
52.000 7.491185
53.000 7.290480
54.000 6.794142
55.000 6.699213
56.000 7.103336
57.000 7.040955
58.000 6.794142
59.000 6.788717
60.000 6.533767
61.000 6.352048
62.000 6.550041
63.000 6.390019
64.000 6.362897
65.000 6.208299
65.800 6.032004
66.500 6.088961
67.500 6.056414
68.500 5.785191
69.500 5.858421
70.500 5.568213
71.600 5.703824
72.600 5.630594
73.500 5.570925
74.500 5.443450
75.500 5.345810
76.500 5.191212
77.500 5.177651
78.500 5.090860
79.500 5.031191
80.500 4.974234
81.500 4.919989
82.500 4.865745
83.500 4.599946
84.500 4.713860
85.500 4.632493
86.500 4.602658
87.500 4.542989
88.500 4.477895
89.500 4.412802
90.500 4.317874
91.500 4.456197
92.500 8.486574
93.500 12.047735
94.500 17.415243
95.500 20.010849
96.500 23.227556
97.500 13.566585
98.500 24.464334
99.500 23.932737
100.500 24.982370
101.500 22.337944
102.500 13.005153
103.500 20.254950
104.500 24.486032
105.500 24.564687
106.500 23.081096
107.500 23.656089
108.500 21.950095
109.500 23.102794
110.500 22.213181
111.500 21.844318
112.500 20.707893
113.500 21.149986
114.500 20.254950
115.500 20.100353
116.500 19.839978
117.500 17.485761
118.500 18.489287
119.500 16.810415
120.500 14.594521
121.500 8.890697
122.500 14.022240
123.500 16.088961
124.500 16.495796
125.500 16.487659
126.500 16.002170
127.500 16.289666
128.500 16.156767
129.500 15.394630
130.500 15.112558
131.500 15.381069
132.500 14.957960
133.500 14.488744
134.500 14.597234
135.500 14.328723
136.500 13.930024
137.500 13.715758
138.500 13.580146
139.500 12.771901
140.500 12.527800
141.500 12.864117
142.500 12.592894
143.500 12.443721
144.200 12.373203
144.700 12.270138
145.500 12.069433
146.500 11.814483
147.500 11.632764
148.500 11.453756
149.500 11.250339
150.500 11.027936
151.200 10.813670
151.700 10.797396
152.500 10.599403
153.500 10.176295
154.500 9.978302
155.500 9.742338
156.500 9.717928
157.500 9.717928
158.500 9.641985
159.500 9.563331
160.500 9.227014
161.500 9.085978
162.500 8.915107
163.500 8.814755
164.500 8.573366
165.500 8.527258
166.500 8.567941
167.200 8.285869
167.700 8.418769
168.500 8.353675
169.500 8.174668
170.500 7.998373
171.500 7.824790
172.500 7.708164
173.500 7.721725
174.500 7.558991
175.500 7.515595
176.500 7.257933
177.500 7.279631
178.500 7.181991
179.500 7.127746
180.500 7.040955
181.500 6.897206
182.500 6.815839
183.500 6.712775
184.500 6.509357
185.500 6.390019
186.500 6.341199
187.500 6.338487
188.500 6.145918
189.500 6.007594
190.500 6.042853
191.500 5.890968
192.500 5.787903
193.500 5.774342
194.500 5.771630
195.500 5.589910
196.700 5.606184
197.600 5.576349
198.400 5.462436
199.500 5.329536
200.500 5.318687
201.500 5.256306
202.500 5.223759
203.500 5.128831
204.500 5.071874
205.500 4.665039
206.500 4.743694
207.400 4.933550
207.800 4.868457
208.500 4.854896
209.500 4.757255
210.500 4.738270
211.500 4.700298
212.500 4.659615
213.500 4.572823
214.500 4.526715
215.500 4.494169
216.500 4.399241
217.500 4.361269
218.500 4.304312
219.500 4.301600
220.500 4.220233
221.500 4.136154
222.500 4.084622
223.500 4.090046
224.500 4.022240
225.500 3.938161
226.500 3.913751
227.500 3.889341
228.500 3.859506
229.500 3.767290
230.500 3.737456
231.500 3.702197
232.500 3.463520
233.500 3.604557
234.500 3.515053
235.500 3.531326
236.500 3.447247
237.500 3.439110
238.500 3.333333
239.500 3.357743
240.500 3.308923
241.500 3.279089
242.500 3.273664
243.500 3.213995
244.500 3.200434
245.500 3.170599
246.500 3.121779
247.500 3.083808
248.500 3.070247
249.500 2.975319
250.500 3.024139
251.300 2.926499
251.800 2.959045
252.500 2.915650
253.500 2.877678
254.500 2.850556
255.500 2.858693
256.500 2.823434
257.500 2.818009
258.500 2.793599
259.500 2.758340
260.500 2.717657
261.500 2.687822
262.500 2.672905
263.500 2.653919
264.500 2.677244
265.500 2.652563
266.500 2.605099
267.500 2.594793
268.500 2.579875
269.500 2.533767
270.500 2.521020
271.500 2.482235
272.500 2.449688
273.500 2.438025
274.500 2.378085
275.500 2.364795
276.500 2.359913
277.500 2.366423
278.500 2.335774
279.500 2.227828
280.500 2.247084
281.500 2.291294
282.500 2.264171
283.500 2.236507
284.500 2.216165
285.500 2.188500
286.500 2.189314
287.500 2.167887
288.500 2.154055
289.500 2.136425
291.000 2.124491
293.000 2.078926
295.000 2.037158
297.000 2.014104
299.000 1.982099
301.000 1.952807
303.000 1.919447
305.000 1.887171
307.000 1.852997
309.000 1.823162
311.000 1.791429
313.000 1.759696
315.000 1.732031
317.000 1.706265
319.000 1.664226
321.000 1.647681
323.000 1.620287
325.000 1.602658
327.000 1.584215
329.000 1.560347
331.000 1.538649
332.200 1.510713
332.300 1.520477
332.400 1.515595
332.500 1.508544
332.600 1.496610
332.700 1.482235
332.800 1.483320
332.900 1.488202
333.000 1.494711
333.100 1.499322
333.200 1.495796
333.300 1.487931
333.400 1.475997
333.500 1.467589
333.600 1.455384
333.700 1.442908
333.800 1.440467
333.900 1.441009
334.000 1.435313
334.100 1.440467
334.200 1.443450
334.300 1.467318
334.400 1.488744
334.500 1.498508
334.600 1.505831
334.700 1.504204
334.800 1.480879
334.900 1.445077
335.000 1.402766
335.100 1.402224
335.200 1.423922
335.300 1.436398
335.400 1.436127
335.500 1.423379
335.600 1.420125
335.700 1.424736
335.800 1.422566
335.900 1.416328
336.000 1.411174
336.100 1.405750
336.200 1.415785
336.300 1.419040
336.400 1.420125
336.500 1.408462
336.600 1.394630
336.700 1.384052
336.800 1.378899
336.900 1.384052
337.000 1.397613
337.100 1.398969
337.200 1.380797
337.300 1.376458
337.400 1.385408
337.500 1.410903
337.600 1.425278
337.700 1.409547
337.800 1.395172
337.900 1.387578
338.000 1.396528
338.100 1.412259
338.200 1.426634
338.300 1.437212
338.400 1.434500
338.500 1.435856
338.600 1.433415
338.700 1.427177
338.800 1.424193
338.900 1.425007
339.000 1.431516
339.100 1.439924
339.200 1.441280
339.300 1.437212
339.400 1.444264
339.500 1.449417
339.600 1.455384
339.700 1.449417
339.800 1.440195
339.900 1.411174
340.000 1.385679
340.100 1.387849
340.200 1.377271
340.300 1.376729
340.400 1.377271
340.500 1.381340
340.600 1.372661
340.700 1.372118
340.800 1.382425
340.900 1.387578
341.000 1.390019
341.100 1.376729
341.200 1.380526
341.300 1.396528
341.400 1.410090
341.500 1.411174
341.600 1.407648
341.700 1.407377
341.800 1.415243
341.900 1.422837
342.000 1.423651
342.100 1.420396
342.200 1.411446
342.300 1.408462
342.400 1.407648
342.500 1.404936
342.600 1.408733
342.700 1.413615
342.800 1.420938
342.900 1.426905
343.000 1.415785
343.100 1.409276
343.200 1.404665
343.300 1.406564
343.400 1.412802
343.500 1.416599
343.600 1.419582
343.700 1.418226
343.800 1.415243
343.900 1.406292
344.000 1.388120
344.100 1.371847
344.200 1.366151
344.300 1.369135
344.400 1.372118
344.500 1.375644
344.600 1.386222
344.700 1.397884
344.800 1.414972
344.900 1.425549
345.000 1.393816
345.100 1.357743
345.200 1.340928
345.300 1.334961
345.400 1.343369
345.500 1.343640
345.600 1.342826
345.700 1.343911
345.800 1.338758
345.900 1.336859
346.000 1.332248
346.100 1.330350
346.200 1.336859
346.300 1.359371
346.400 1.352319
346.500 1.349064
346.600 1.350420
346.700 1.352590
346.800 1.351234
346.900 1.353675
347.000 1.363439
347.100 1.361269
347.200 1.354218
347.300 1.343911
347.400 1.340114
347.500 1.335232
347.600 1.335232
347.700 1.330079
347.800 1.320043
347.900 1.313805
348.000 1.321942
348.100 1.331435
348.200 1.324654
348.300 1.314076
348.400 1.314619
348.500 1.335232
348.600 1.352590
348.700 1.360456
348.800 1.364795
348.900 1.358015
349.000 1.347979
349.100 1.345538
349.200 1.355574
349.300 1.358557
349.400 1.351505
349.500 1.337944
349.600 1.329807
349.700 1.335774
349.800 1.344996
349.900 1.345538
350.000 1.325197
350.100 1.313263
350.200 1.319772
350.300 1.322756
350.400 1.314619
350.500 1.301329
350.600 1.294820
350.700 1.296989
350.800 1.303499
350.900 1.308652
351.000 1.314076
351.100 1.315704
351.200 1.311364
351.300 1.300787
351.400 1.295091
351.500 1.301871
351.600 1.311635
351.700 1.316789
351.800 1.320586
351.900 1.319772
352.000 1.318416
352.100 1.314348
352.200 1.308652
352.300 1.310008
352.400 1.313263
352.500 1.311093
352.600 1.313534
352.700 1.313805
352.800 1.317331
352.900 1.324654
353.000 1.331706
353.100 1.337130
353.200 1.342555
353.300 1.335774
353.400 1.321671
353.500 1.315704
353.600 1.315704
353.700 1.313805
353.800 1.316517
353.900 1.319230
354.000 1.323569
354.100 1.324383
354.200 1.324383
354.300 1.326553
354.400 1.330350
354.500 1.331164
354.600 1.331435
354.700 1.334147
354.800 1.337673
354.900 1.334961
355.000 1.331164
355.100 1.331164
355.200 1.333876
355.300 1.331977
355.400 1.323569
355.500 1.320043
355.600 1.322484
355.700 1.329807
355.800 1.331977
355.900 1.327095
356.000 1.320315
356.100 1.324112
356.200 1.330079
356.300 1.327366
356.400 1.316246
356.500 1.304855
356.600 1.302414
356.700 1.301600
356.800 1.307025
356.900 1.304041
357.000 1.290751
357.100 1.264714
357.200 1.248712
357.300 1.247084
357.400 1.247356
357.500 1.249525
357.600 1.256577
357.700 1.257662
357.800 1.254679
357.900 1.250610
358.000 1.250610
358.100 1.251695
358.200 1.249797
358.300 1.247627
358.400 1.244372
358.500 1.238405
358.600 1.229997
358.700 1.224844
358.800 1.222674
358.900 1.231082
359.000 1.241660
359.100 1.245186
359.200 1.242474
359.300 1.242202
359.400 1.243287
359.500 1.246542
359.600 1.249797
359.700 1.253322
359.800 1.257120
359.900 1.259561
360.000 1.262002
360.100 1.256577
360.200 1.257120
360.300 1.252780
360.400 1.248983
360.500 1.249254
360.600 1.251695
360.700 1.252780
360.800 1.254136
360.900 1.257933
361.000 1.260374
361.100 1.257933
361.200 1.256035
361.300 1.252509
361.400 1.251695
361.500 1.253594
361.600 1.258747
361.700 1.263629
361.800 1.267969
361.900 1.270138
362.000 1.266070
362.100 1.265256
362.200 1.276105
362.300 1.282072
362.400 1.279631
362.500 1.282343
362.600 1.289666
362.700 1.297261
362.800 1.296718
362.900 1.286954
363.000 1.276648
363.100 1.270681
363.200 1.269596
363.300 1.276105
363.400 1.288853
363.500 1.287768
363.600 1.266341
363.700 1.254950
363.800 1.257120
363.900 1.261188
364.000 1.262815
364.100 1.262544
364.200 1.259561
364.300 1.253051
364.400 1.247627
364.500 1.249254
364.600 1.245186
364.700 1.244372
364.800 1.245999
364.900 1.246542
365.000 1.248983
365.100 1.248712
365.200 1.250068
365.300 1.253051
365.400 1.254679
365.500 1.254407
365.600 1.256848
365.700 1.255492
365.800 1.254407
365.900 1.251695
366.000 1.243558
366.100 1.239219
366.200 1.235151
366.300 1.239219
366.400 1.243287
366.500 1.241931
366.600 1.240304
366.700 1.234608
366.800 1.231353
366.900 1.233523
367.000 1.237592
367.100 1.239219
367.200 1.240575
367.300 1.237592
367.400 1.233252
367.500 1.224573
367.600 1.217792
367.700 1.212910
367.800 1.210198
367.900 1.212910
368.000 1.216979
368.100 1.224030
368.200 1.222132
368.300 1.218335
368.400 1.216979
368.500 1.212368
368.600 1.201790
368.700 1.201248
368.800 1.219691
368.900 1.244101
369.000 1.245999
369.100 1.224302
369.200 1.222132
369.300 1.238405
369.400 1.260646
369.500 1.262273
369.600 1.229184
369.700 1.209656
369.800 1.214538
369.900 1.257391
370.000 1.306211
370.100 1.313263
370.200 1.273664
370.300 1.193925
370.400 1.152699
370.500 1.149173
370.600 1.203960
370.700 1.263900
370.800 1.312720
370.900 1.295091
371.000 1.233252
371.100 1.168701
371.200 1.129916
371.300 1.150800
371.400 1.215622
371.500 1.321400
371.600 1.386493
371.700 1.423922
371.800 1.413073
371.900 1.346623
372.000 1.223488
372.100 1.145918
372.200 1.097640
372.300 1.129916
372.400 1.215894
372.500 1.330621
372.600 1.398156
372.700 1.465148
372.800 1.492270
372.900 1.497695
373.000 1.473285
373.100 1.403580
373.200 1.278004
373.300 1.172498
373.400 1.077841
373.500 1.058855
373.600 1.112015
373.700 1.232710
373.800 1.339300
373.900 1.468674
374.000 1.540005
374.100 1.589368
374.200 1.604557
374.300 1.594793
374.400 1.567128
374.500 1.521562
374.600 1.442094
374.700 1.337130
374.800 1.225929
374.900 1.094114
375.000 1.044481
375.100 1.061025
375.200 1.149986
375.300 1.264985
375.400 1.394630
375.500 1.474641
375.600 1.551126
375.700 1.580418
375.800 1.593979
375.900 1.592894
376.000 1.586656
376.100 1.588283
376.200 1.606184
376.300 1.602929
376.400 1.581503
376.500 1.532140
376.600 1.457825
376.700 1.379713
376.800 1.259561
376.900 1.135883
377.000 1.039599
377.100 1.001085
377.200 1.062381
377.300 1.187144
377.400 1.297261
377.500 1.406292
377.600 1.493355
377.700 1.562788
377.800 1.633306
377.900 1.677516
378.000 1.721996
378.100 1.745864
378.200 1.762951
378.300 1.767833
378.400 1.769731
378.500 1.770545
378.600 1.762137
378.700 1.745050
378.800 1.726607
378.900 1.701926
379.000 1.666124
379.100 1.625983
379.200 1.564416
379.300 1.492541
379.400 1.405207
379.500 1.275292
379.600 1.155682
379.700 1.032276
379.800 0.973420
379.900 1.004882
380.000 1.124491
380.100 1.246271
380.200 1.381882
380.300 1.470030
380.400 1.550041
380.500 1.609439
380.600 1.647139
380.700 1.689449
380.800 1.724166
380.900 1.762680
381.000 1.793057
381.100 1.811500
381.200 1.807432
381.300 1.794413
381.400 1.781123
381.500 1.783835
381.600 1.785462
381.700 1.781937
381.800 1.768104
381.900 1.739354
382.000 1.719284
382.100 1.714673
382.200 1.732845
382.300 1.736371
382.400 1.717385
382.500 1.687280
382.600 1.647410
382.700 1.618118
382.800 1.577163
382.900 1.520477
383.000 1.460537
383.100 1.373746
383.200 1.282343
383.300 1.160293
383.400 1.017087
383.500 0.950095
383.600 0.939246
383.700 1.009493
383.800 1.122593
383.900 1.245186
384.000 1.342555
384.100 1.448061
384.200 1.519392
384.300 1.595877
384.400 1.645782
384.500 1.689449
384.600 1.724166
384.700 1.748034
384.800 1.766477
384.900 1.777055
385.000 1.787632
385.100 1.807160
385.200 1.820721
385.300 1.826146
385.400 1.821264
385.500 1.813398
385.600 1.807160
385.700 1.809873
385.800 1.824790
385.900 1.841063
386.000 1.849742
386.100 1.849200
386.200 1.835639
386.300 1.804719
386.400 1.800651
386.500 1.802278
386.600 1.806075
386.700 1.814755
386.800 1.819908
386.900 1.819365
387.000 1.807974
387.100 1.789531
387.200 1.766748
387.300 1.757526
387.400 1.758883
387.500 1.761595
387.600 1.748305
387.700 1.720640
387.800 1.696501
387.900 1.669650
388.000 1.647410
388.100 1.614592
388.200 1.560890
388.300 1.507187
388.400 1.435856
388.500 1.345267
388.600 1.237049
388.700 1.090589
388.800 0.979929
388.900 0.919989
389.000 0.953078
389.100 1.056957
389.200 1.200434
389.300 1.306211
389.400 1.404936
389.500 1.472742
389.600 1.537293
389.700 1.592894
389.800 1.627068
389.900 1.655818
390.000 1.676973
390.100 1.705452
390.200 1.736913
390.300 1.760239
390.400 1.772172
390.500 1.776241
390.600 1.780852
390.700 1.797667
390.800 1.826146
390.900 1.853539
391.000 1.864388
391.100 1.869270
391.200 1.863575
391.300 1.848929
391.400 1.836724
391.500 1.839436
391.600 1.852455
391.700 1.860049
391.800 1.860320
391.900 1.851912
392.000 1.851098
392.100 1.852455
392.200 1.848929
392.300 1.842419
392.400 1.839165
392.500 1.842691
392.600 1.836995
392.700 1.831570
392.800 1.816924
392.900 1.800651
393.000 1.781665
393.100 1.730947
393.200 1.637646
393.300 1.518579
393.400 1.487388
393.500 1.550854
393.600 1.663141
393.700 1.742609
393.800 1.791701
393.900 1.817196
394.000 1.835639
394.100 1.847301
394.200 1.848929
394.300 1.838893
394.400 1.826688
394.500 1.810415
394.600 1.802549
394.700 1.802821
394.800 1.800108
394.900 1.793870
395.000 1.784649
395.100 1.773800
395.200 1.763222
395.300 1.759425
395.400 1.754814
395.500 1.738541
395.600 1.718199
395.700 1.696501
395.800 1.681855
395.900 1.662598
396.000 1.628424
396.100 1.589368
396.200 1.536751
396.300 1.489287
396.400 1.423379
396.500 1.339843
396.600 1.235422
396.700 1.073230
396.800 0.925685
396.900 0.819365
397.000 0.795226
397.100 0.856523
397.200 0.981286
397.300 1.103878
397.400 1.232167
397.500 1.326010
397.600 1.406564
397.700 1.473827
397.800 1.515053
397.900 1.563873
398.000 1.595606
398.100 1.625170
398.200 1.648223
398.300 1.666667
398.400 1.689721
398.500 1.709520
398.600 1.720369
398.700 1.721996
398.800 1.741524
398.900 1.751831
399.000 1.763222
399.100 1.772715
399.200 1.776783
399.300 1.782750
399.400 1.785191
399.500 1.788988
399.600 1.786276
399.700 1.784920
399.800 1.786005
399.900 1.790616
400.000 1.785191
400.100 1.777326
400.200 1.775698
400.300 1.771088
400.400 1.770816
400.500 1.770816
400.600 1.771901
400.700 1.773257
400.800 1.777326
400.900 1.776241
401.000 1.775427
401.100 1.779224
401.200 1.784649
401.300 1.789531
401.400 1.790616
401.500 1.795226
401.600 1.803634
401.700 1.813127
401.800 1.820721
401.900 1.824247
402.000 1.823705
402.100 1.817738
402.200 1.807160
402.300 1.784378
402.400 1.753187
402.500 1.726065
402.600 1.719013
402.700 1.735557
402.800 1.760781
402.900 1.780038
403.000 1.796040
403.100 1.801193
403.200 1.805804
403.300 1.807703
403.400 1.810686
403.500 1.818280
403.600 1.823434
403.700 1.826688
403.800 1.828044
403.900 1.824790
404.000 1.823705
404.100 1.822078
404.200 1.817467
404.300 1.811771
404.400 1.798752
404.500 1.784378
404.600 1.776512
404.700 1.786005
404.800 1.799837
404.900 1.809873
405.000 1.811771
405.100 1.810415
405.200 1.806347
405.300 1.797939
405.400 1.793057
405.500 1.796854
405.600 1.801193
405.700 1.803092
405.800 1.802278
405.900 1.804448
406.000 1.804719
406.100 1.795769
406.200 1.783021
406.300 1.771901
406.400 1.754543
406.500 1.720369
406.600 1.718199
406.700 1.724708
406.800 1.722810
406.900 1.720911
407.000 1.712775
407.100 1.698400
407.200 1.690534
407.300 1.688365
407.400 1.691619
407.500 1.689721
407.600 1.675617
407.700 1.664226
407.800 1.656903
407.900 1.663412
408.000 1.674532
408.100 1.679685
408.200 1.676702
408.300 1.666667
408.400 1.653106
408.500 1.640087
408.600 1.626526
408.700 1.619474
408.800 1.610252
408.900 1.600759
409.000 1.580960
409.100 1.561161
409.200 1.538378
409.300 1.501221
409.400 1.463520
409.500 1.407920
409.600 1.349064
409.700 1.282615
409.800 1.192026
409.900 1.093301
410.000 0.972335
410.100 0.874424
410.200 0.844047
410.300 0.899105
410.400 1.007052
410.500 1.132628
410.600 1.222132
410.700 1.297532
410.800 1.357472
410.900 1.401139
411.000 1.443450
411.100 1.475726
411.200 1.509357
411.300 1.534581
411.400 1.558177
411.500 1.580146
411.600 1.598047
411.700 1.605370
411.800 1.604285
411.900 1.604828
412.000 1.606184
412.100 1.613236
412.200 1.621372
412.300 1.631136
412.400 1.643341
412.500 1.654462
412.600 1.648766
412.700 1.634662
412.800 1.623271
412.900 1.618118
413.000 1.618660
413.100 1.625712
413.200 1.633577
413.300 1.645511
413.400 1.664497
413.500 1.675075
413.600 1.682126
413.700 1.686195
413.800 1.691890
413.900 1.696501
414.000 1.696772
414.100 1.689178
414.200 1.673447
414.300 1.658801
414.400 1.651207
414.500 1.659072
414.600 1.673447
414.700 1.684025
414.800 1.686195
414.900 1.685652
415.000 1.689178
415.100 1.693789
