# Wavelength (nm)   F_lamA (normalized erg/cm2/s/A)9.100 0.000757
9.400 0.000844
9.600 0.000902
9.800 0.000960
10.000 0.001019
10.200 0.001078
10.400 0.001136
10.600 0.001195
10.800 0.001254
11.000 0.001313
11.400 0.001435
11.800 0.001564
12.100 0.001669
12.500 0.001830
12.700 0.001922
12.800 0.001972
13.100 0.002139
13.200 0.002202
13.400 0.002341
13.700 0.002588
14.000 0.002889
14.300 0.003261
14.700 0.003891
15.100 0.004713
15.500 0.005775
15.900 0.007128
16.200 0.008367
16.600 0.010373
17.000 0.012843
17.300 0.015039
17.700 0.018482
18.000 0.021490
18.200 0.023719
18.600 0.028737
19.100 0.036181
19.400 0.041314
19.800 0.048995
20.200 0.057681
20.500 0.064896
21.000 0.078356
21.600 0.096913
22.000 0.110840
22.300 0.122111
22.700 0.138299
23.000 4.490309
23.400 4.946159
24.000 6.385499
24.600 8.732950
25.200 10.674803
25.700 8.251974
26.000 11.791098
26.400 14.888729
26.900 15.154343
27.400 15.387653
27.900 14.795406
28.400 15.563532
29.000 15.488155
29.600 14.235463
30.100 9.863604
30.800 12.261307
31.800 15.265614
32.800 15.305097
33.800 15.003589
34.800 14.727207
35.700 14.938981
36.600 15.111271
37.500 14.860014
38.500 14.066762
39.500 14.425700
40.500 14.443647
41.400 14.249821
42.200 13.890883
43.000 13.657574
44.100 13.671931
45.100 13.442211
46.000 13.076095
47.000 12.842785
48.000 12.727925
49.000 12.325915
50.000 12.293611
50.600 13.226849
51.200 15.671213
52.000 15.366116
53.000 15.089734
54.000 14.300072
55.000 14.124192
56.000 14.501077
57.000 14.310840
58.000 13.865757
59.000 13.801149
60.000 13.395549
61.000 13.018665
62.000 13.151472
63.000 12.871500
64.000 12.735104
65.000 12.447954
65.800 12.135678
66.500 12.157215
67.500 12.027997
68.500 11.590093
69.500 11.615219
70.500 11.166547
71.600 11.231156
72.600 11.066045
73.500 10.915291
74.500 10.681981
75.500 10.488155
76.500 10.226131
77.500 10.136396
78.500 9.956927
79.500 9.806174
80.500 9.680546
81.500 9.544149
82.500 9.418521
83.500 9.023690
84.500 9.106246
85.500 8.941134
86.500 8.851400
87.500 8.722182
88.500 8.585786
89.500 8.445800
90.500 8.259153
91.500 8.822685
92.500 15.362527
93.500 21.521895
94.500 31.669060
95.500 36.145011
96.500 42.103374
97.500 25.527638
98.500 44.077531
99.500 42.785355
100.500 44.256999
101.500 40.093324
102.500 23.359655
103.500 36.826992
104.500 42.246949
105.500 41.923905
106.500 39.662599
107.500 40.021536
108.500 37.257717
109.500 38.837042
110.500 37.473080
111.500 36.791098
112.500 35.021536
113.500 35.358938
114.500 34.063173
115.500 33.707825
116.500 33.104810
117.500 29.691314
118.500 31.148600
119.500 29.206748
120.500 26.069634
121.500 15.951184
122.500 24.928212
123.500 27.383345
124.500 27.419239
125.500 27.246949
126.500 26.618808
127.500 26.550610
128.500 26.145011
129.500 25.082556
130.500 24.644652
131.500 24.734386
132.500 24.063173
133.500 23.381192
134.500 23.352477
135.500 22.946877
136.500 22.397703
137.500 21.988514
138.500 21.665470
139.500 20.541996
140.500 20.114860
141.500 20.473798
142.500 20.050251
143.500 19.748744
144.200 19.547739
144.700 19.368270
145.500 19.063173
146.500 18.686289
147.500 18.366834
148.500 18.054559
149.500 17.717157
150.500 17.358220
151.200 17.099785
151.700 16.995693
152.500 16.708543
153.500 16.159368
154.500 15.789663
155.500 15.466619
156.500 15.402010
157.500 15.272793
158.500 15.078966
159.500 14.874372
160.500 14.425700
161.500 14.188801
162.500 13.955492
163.500 13.707825
164.500 13.259153
165.500 13.320172
166.500 13.226849
167.200 12.903805
167.700 12.993539
168.500 12.842785
169.500 12.595118
170.500 12.351041
171.500 12.085427
172.500 11.905958
173.500 11.834171
174.500 11.604451
175.500 11.471644
176.500 11.162958
177.500 11.101938
178.500 10.944006
179.500 10.811199
180.500 10.664034
181.500 10.466619
182.500 10.319454
183.500 10.161522
184.500 9.910266
185.500 9.702082
186.500 9.601579
187.500 9.547739
188.500 9.300072
189.500 9.099067
190.500 9.095477
191.500 8.876525
192.500 8.729361
193.500 8.675520
194.500 8.621680
195.500 8.384781
196.700 8.352477
197.600 8.284279
198.400 8.137114
199.500 7.946877
200.500 7.914573
201.500 7.821249
202.500 7.742283
203.500 7.609476
204.500 7.508973
205.500 6.880833
206.500 6.966978
207.400 7.261307
207.800 7.178751
208.500 7.146447
209.500 7.020818
210.500 6.966978
211.500 6.905958
212.500 6.826992
213.500 6.715721
214.500 6.629576
215.500 6.572146
216.500 6.446518
217.500 6.385499
218.500 6.288586
219.500 6.252692
220.500 6.155779
221.500 6.040919
222.500 5.976310
223.500 5.933238
224.500 5.850682
225.500 5.735822
226.500 5.692749
227.500 5.635319
228.500 5.574300
229.500 5.455851
230.500 5.402010
231.500 5.358938
232.500 5.071788
233.500 5.215363
234.500 5.118449
235.500 5.100503
236.500 5.007179
237.500 4.967696
238.500 4.842067
239.500 4.845657
240.500 4.781048
241.500 4.730797
242.500 4.698492
243.500 4.630294
244.500 4.587222
245.500 4.540560
246.500 4.475951
247.500 4.422111
248.500 4.382627
249.500 4.267767
250.500 4.296482
251.300 4.170854
251.800 4.221106
252.500 4.170854
253.500 4.117014
254.500 4.077531
255.500 4.055994
256.500 4.005743
257.500 3.977028
258.500 3.937545
259.500 3.890883
260.500 3.840632
261.500 3.793970
262.500 3.765255
263.500 3.729361
264.500 3.729361
265.500 3.689878
266.500 3.636037
267.500 3.607322
268.500 3.582915
269.500 3.524049
270.500 3.502872
271.500 3.456927
272.500 3.406317
273.500 3.374731
274.500 3.323044
275.500 3.297200
276.500 3.269562
277.500 3.266691
278.500 3.227566
279.500 3.128859
280.500 3.127782
281.500 3.146088
282.500 3.102656
283.500 3.072864
284.500 3.047739
285.500 3.011486
286.500 2.995334
287.500 2.965542
288.500 2.941852
289.500 2.914932
291.000 2.883345
293.000 2.824121
295.000 2.761307
297.000 2.724695
299.000 2.676597
301.000 2.624192
303.000 2.570352
305.000 2.518306
307.000 2.465542
309.000 2.417444
311.000 2.367911
313.000 2.319813
315.000 2.276023
317.000 2.234386
319.000 2.175162
321.000 2.143216
323.000 2.104810
325.000 2.071070
327.000 2.038047
329.000 2.001077
331.000 1.968055
332.200 1.964106
332.300 1.981694
332.400 1.971644
332.500 1.964465
332.600 1.947595
332.700 1.928930
332.800 1.928212
332.900 1.934314
333.000 1.940775
333.100 1.940416
333.200 1.929648
333.300 1.912419
333.400 1.900933
333.500 1.895190
333.600 1.886576
333.700 1.869347
333.800 1.852118
333.900 1.852836
334.000 1.847452
334.100 1.863245
334.200 1.871500
334.300 1.902728
334.400 1.929289
334.500 1.944006
334.600 1.961594
334.700 1.964106
334.800 1.936109
334.900 1.880474
335.000 1.804738
335.100 1.808686
335.200 1.840991
335.300 1.859655
335.400 1.856784
335.500 1.835607
335.600 1.830581
335.700 1.835248
335.800 1.834889
335.900 1.829505
336.000 1.836324
336.100 1.831658
336.200 1.843862
336.300 1.838478
336.400 1.835248
336.500 1.819095
336.600 1.801149
336.700 1.787509
336.800 1.776023
336.900 1.780689
337.000 1.806174
337.100 1.811917
337.200 1.793252
337.300 1.790022
337.400 1.800072
337.500 1.834889
337.600 1.848528
337.700 1.815506
337.800 1.793611
337.900 1.782484
338.000 1.800072
338.100 1.824838
338.200 1.848528
338.300 1.860014
338.400 1.854989
338.500 1.854271
338.600 1.852836
338.700 1.848169
338.800 1.846016
338.900 1.841709
339.000 1.843503
339.100 1.848169
339.200 1.849964
339.300 1.849605
339.400 1.864322
339.500 1.871500
339.600 1.872218
339.700 1.854630
339.800 1.838119
339.900 1.801508
340.000 1.777100
340.100 1.790739
340.200 1.774946
340.300 1.768485
340.400 1.768485
340.500 1.772793
340.600 1.762024
340.700 1.764178
340.800 1.776741
340.900 1.786791
341.000 1.790739
341.100 1.764537
341.200 1.770280
341.300 1.791816
341.400 1.814429
341.500 1.821249
341.600 1.822326
341.700 1.822685
341.800 1.827351
341.900 1.834530
342.000 1.833812
342.100 1.831658
342.200 1.820890
342.300 1.814429
342.400 1.811558
342.500 1.808327
342.600 1.818378
342.700 1.825556
342.800 1.832376
342.900 1.835248
343.000 1.816583
343.100 1.813711
343.200 1.813352
343.300 1.821608
343.400 1.825556
343.500 1.824838
343.600 1.828069
343.700 1.827351
343.800 1.831299
343.900 1.820531
344.000 1.792893
344.100 1.770998
344.200 1.763101
344.300 1.773151
344.400 1.782125
344.500 1.778536
344.600 1.784279
344.700 1.791457
344.800 1.812276
344.900 1.825197
345.000 1.783561
345.100 1.740847
345.200 1.720747
345.300 1.714645
345.400 1.724336
345.500 1.727566
345.600 1.728643
345.700 1.728284
345.800 1.721464
345.900 1.720029
346.000 1.715363
346.100 1.713209
346.200 1.721106
346.300 1.754128
346.400 1.739052
346.500 1.739411
346.600 1.743360
346.700 1.740847
346.800 1.738693
346.900 1.736899
347.000 1.747308
347.100 1.740488
347.200 1.735463
347.300 1.734386
347.400 1.735104
347.500 1.729361
347.600 1.723259
347.700 1.701005
347.800 1.678751
347.900 1.665470
348.000 1.678033
348.100 1.696698
348.200 1.685930
348.300 1.667265
348.400 1.666188
348.500 1.695980
348.600 1.724336
348.700 1.739770
348.800 1.755205
348.900 1.750179
349.000 1.736181
349.100 1.732592
349.200 1.747308
349.300 1.752692
349.400 1.743001
349.500 1.726849
349.600 1.717157
349.700 1.725054
349.800 1.734745
349.900 1.730797
350.000 1.701005
350.100 1.685212
350.200 1.694185
350.300 1.701005
350.400 1.688442
350.500 1.668701
350.600 1.658650
350.700 1.660804
350.800 1.675162
350.900 1.681263
351.000 1.685212
351.100 1.686648
351.200 1.681263
351.300 1.667624
351.400 1.664393
351.500 1.674444
351.600 1.686648
351.700 1.688442
351.800 1.690237
351.900 1.690596
352.000 1.690596
352.100 1.683776
352.200 1.675879
352.300 1.678033
352.400 1.686289
352.500 1.685212
352.600 1.685212
352.700 1.680905
352.800 1.682340
352.900 1.690596
353.000 1.700646
353.100 1.709261
353.200 1.719311
353.300 1.713209
353.400 1.694903
353.500 1.687724
353.600 1.688083
353.700 1.680187
353.800 1.681622
353.900 1.683058
354.000 1.691314
354.100 1.695262
354.200 1.695621
354.300 1.694544
354.400 1.698851
354.500 1.702082
354.600 1.704953
354.700 1.713209
354.800 1.718234
354.900 1.711773
355.000 1.705312
355.100 1.706030
355.200 1.712850
355.300 1.715363
355.400 1.704235
355.500 1.696339
355.600 1.694544
355.700 1.700287
355.800 1.702082
355.900 1.694903
356.000 1.686648
356.100 1.692032
356.200 1.698851
356.300 1.694903
356.400 1.682340
356.500 1.674444
356.600 1.674444
356.700 1.670495
356.800 1.676956
356.900 1.671572
357.000 1.652548
357.100 1.612347
357.200 1.594042
357.300 1.593324
357.400 1.593683
357.500 1.597990
357.600 1.609117
357.700 1.609476
357.800 1.604810
357.900 1.599426
358.000 1.601220
358.100 1.603733
358.200 1.598349
358.300 1.594760
358.400 1.596195
358.500 1.590811
358.600 1.582556
358.700 1.577172
358.800 1.569275
358.900 1.574300
359.000 1.586145
359.100 1.588658
359.200 1.585786
359.300 1.587940
359.400 1.590811
359.500 1.593683
359.600 1.594401
359.700 1.599426
359.800 1.607322
359.900 1.612706
360.000 1.618449
360.100 1.614142
360.200 1.614860
360.300 1.606963
360.400 1.599785
360.500 1.597990
360.600 1.599785
360.700 1.602656
360.800 1.608758
360.900 1.615937
361.000 1.619526
361.100 1.610912
361.200 1.606963
361.300 1.602656
361.400 1.597990
361.500 1.596554
361.600 1.603015
361.700 1.610194
361.800 1.617732
361.900 1.624192
362.000 1.616655
362.100 1.615937
362.200 1.632448
362.300 1.637832
362.400 1.631371
362.500 1.633166
362.600 1.641421
362.700 1.651831
362.800 1.650036
362.900 1.637473
363.000 1.629576
363.100 1.624192
363.200 1.622398
363.300 1.629218
363.400 1.647882
363.500 1.645729
363.600 1.611630
363.700 1.595477
363.800 1.599067
363.900 1.604451
364.000 1.605528
364.100 1.606963
364.200 1.607681
364.300 1.601220
364.400 1.590811
364.500 1.589375
364.600 1.583274
364.700 1.585068
364.800 1.589017
364.900 1.588299
365.000 1.588658
365.100 1.587222
365.200 1.587222
365.300 1.587581
365.400 1.587222
365.500 1.589017
365.600 1.594760
365.700 1.592965
365.800 1.589375
365.900 1.585068
366.000 1.574300
366.100 1.573941
366.200 1.571070
366.300 1.577172
366.400 1.580043
366.500 1.575736
366.600 1.573582
366.700 1.567480
366.800 1.565327
366.900 1.571788
367.000 1.577531
367.100 1.576454
367.200 1.575377
367.300 1.567839
367.400 1.561737
367.500 1.550969
367.600 1.547380
367.700 1.545226
367.800 1.542355
367.900 1.544867
368.000 1.548816
368.100 1.557071
368.200 1.553841
368.300 1.549892
368.400 1.550610
368.500 1.544149
368.600 1.531945
368.700 1.529792
368.800 1.551328
368.900 1.580761
369.000 1.578248
369.100 1.549174
369.200 1.551687
369.300 1.576095
369.400 1.601220
369.500 1.596195
369.600 1.555635
369.700 1.535894
369.800 1.540919
369.900 1.589017
370.000 1.643216
370.100 1.648600
370.200 1.601579
370.300 1.511486
370.400 1.467337
370.500 1.465901
370.600 1.526920
370.700 1.587940
370.800 1.638909
370.900 1.615578
371.000 1.549533
371.100 1.479182
371.200 1.440775
371.300 1.465183
371.400 1.535894
371.500 1.648959
371.600 1.713209
371.700 1.748744
371.800 1.737976
371.900 1.664752
372.000 1.530869
372.100 1.451902
372.200 1.404164
372.300 1.442929
372.400 1.534099
372.500 1.652907
372.600 1.708543
372.700 1.772793
372.800 1.798636
372.900 1.806533
373.000 1.784279
373.100 1.710337
373.200 1.579325
373.300 1.469131
373.400 1.372577
373.500 1.357143
373.600 1.418521
373.700 1.548098
373.800 1.653625
373.900 1.782125
374.000 1.849246
374.100 1.894831
374.200 1.904164
374.300 1.889806
374.400 1.861091
374.500 1.815147
374.600 1.736181
374.700 1.629218
374.800 1.512922
374.900 1.372577
375.000 1.327710
375.100 1.354630
375.200 1.456569
375.300 1.570711
375.400 1.699569
375.500 1.772075
375.600 1.841709
375.700 1.858220
375.800 1.856066
375.900 1.843503
376.000 1.832735
376.100 1.831299
376.200 1.862886
376.300 1.868270
376.400 1.848887
376.500 1.800072
376.600 1.730797
376.700 1.656497
376.800 1.535535
376.900 1.406676
377.000 1.309045
377.100 1.272793
377.200 1.350682
377.300 1.484207
377.400 1.597272
377.500 1.702082
377.600 1.781766
377.700 1.842067
377.800 1.902369
377.900 1.936468
378.000 1.971644
378.100 1.989950
378.200 2.003948
378.300 2.000000
378.400 1.997128
378.500 1.999282
378.600 1.991027
378.700 1.976669
378.800 1.961953
378.900 1.940775
379.000 1.910266
379.100 1.873654
379.200 1.818378
379.300 1.755922
379.400 1.675162
379.500 1.543790
379.600 1.418162
379.700 1.288227
379.800 1.227925
379.900 1.272075
380.000 1.407394
380.100 1.538765
380.200 1.674085
380.300 1.754846
380.400 1.824838
380.500 1.878320
380.600 1.905240
380.700 1.934673
380.800 1.959440
380.900 1.989591
381.000 2.014358
381.100 2.027638
381.200 2.015793
381.300 1.994616
381.400 1.975951
381.500 1.974156
381.600 1.974156
381.700 1.971644
381.800 1.956927
381.900 1.929289
382.000 1.908112
382.100 1.905958
382.200 1.931802
382.300 1.939698
382.400 1.925341
382.500 1.900574
382.600 1.867193
382.700 1.847810
382.800 1.814070
382.900 1.765255
383.000 1.711055
383.100 1.629218
383.200 1.537688
383.300 1.409548
383.400 1.255205
383.500 1.187006
383.600 1.181263
383.700 1.266332
383.800 1.389806
383.900 1.521895
384.000 1.619526
384.100 1.719311
384.200 1.779612
384.300 1.844580
384.400 1.883345
384.500 1.918162
384.600 1.941493
384.700 1.954774
384.800 1.962670
384.900 1.965901
385.000 1.970926
385.100 1.988155
385.200 1.998923
385.300 1.996411
385.400 1.985284
385.500 1.973439
385.600 1.963747
385.700 1.966978
385.800 1.983848
385.900 1.998923
386.000 2.007538
386.100 2.004666
386.200 1.983130
386.300 1.944724
386.400 1.940775
386.500 1.947236
386.600 1.953338
386.700 1.965542
386.800 1.974874
386.900 1.976310
387.000 1.967696
387.100 1.951902
387.200 1.930007
387.300 1.920316
387.400 1.925700
387.500 1.935750
387.600 1.930007
387.700 1.909907
387.800 1.892319
387.900 1.874013
388.000 1.860014
388.100 1.829505
388.200 1.781048
388.300 1.734745
388.400 1.672290
388.500 1.585068
388.600 1.471644
388.700 1.315147
388.800 1.193108
388.900 1.134961
389.000 1.180546
389.100 1.306892
389.200 1.464465
389.300 1.574300
389.400 1.668342
389.500 1.725413
389.600 1.778536
389.700 1.825556
389.800 1.850682
389.900 1.866834
390.000 1.876525
390.100 1.902369
390.200 1.931443
390.300 1.947954
390.400 1.950826
390.500 1.944724
390.600 1.939698
390.700 1.950108
390.800 1.976669
390.900 2.002154
391.000 2.008615
391.100 2.011845
391.200 2.003948
391.300 1.987078
391.400 1.972003
391.500 1.973080
391.600 1.983489
391.700 1.988514
391.800 1.985284
391.900 1.973798
392.000 1.972003
392.100 1.973798
392.200 1.968055
392.300 1.953338
392.400 1.946877
392.500 1.954415
392.600 1.949390
392.700 1.947236
392.800 1.930725
392.900 1.911701
393.000 1.892319
393.100 1.847452
393.200 1.741206
393.300 1.608399
393.400 1.600861
393.500 1.690955
393.600 1.795406
393.700 1.857143
393.800 1.898780
393.900 1.924623
394.000 1.949031
394.100 1.966619
394.200 1.970208
394.300 1.958004
394.400 1.942929
394.500 1.926418
394.600 1.920316
394.700 1.924982
394.800 1.929289
394.900 1.925341
395.000 1.917085
395.100 1.905958
395.200 1.896985
395.300 1.897344
395.400 1.899139
395.500 1.889806
395.600 1.872577
395.700 1.854630
395.800 1.846375
395.900 1.835966
396.000 1.810840
396.100 1.779971
396.200 1.733668
396.300 1.691314
396.400 1.629218
396.500 1.550969
396.600 1.441852
396.700 1.259153
396.800 1.083274
396.900 0.972362
397.000 0.957286
397.100 1.041996
397.200 1.189878
397.300 1.329146
397.400 1.463388
397.500 1.558507
397.600 1.634602
397.700 1.693467
397.800 1.721106
397.900 1.762024
398.000 1.785714
398.100 1.808686
398.200 1.822685
398.300 1.831299
398.400 1.847452
398.500 1.862168
398.600 1.866116
398.700 1.856066
398.800 1.881551
398.900 1.890165
399.000 1.896985
399.100 1.902728
399.200 1.904523
399.300 1.909189
399.400 1.910266
399.500 1.912778
399.600 1.903805
399.700 1.898062
399.800 1.896985
399.900 1.899856
400.000 1.889806
400.100 1.879397
400.200 1.876525
400.300 1.872936
400.400 1.874731
400.500 1.876884
400.600 1.880474
400.700 1.882268
400.800 1.884781
400.900 1.881192
401.000 1.878679
401.100 1.882268
401.200 1.889088
401.300 1.892678
401.400 1.894113
401.500 1.896626
401.600 1.904164
401.700 1.915650
401.800 1.925341
401.900 1.930007
402.000 1.927495
402.100 1.919598
402.200 1.905958
402.300 1.876525
402.400 1.837760
402.500 1.806174
402.600 1.800790
402.700 1.823762
402.800 1.854271
402.900 1.877602
403.000 1.893396
403.100 1.897344
403.200 1.900574
403.300 1.901292
403.400 1.904164
403.500 1.912778
403.600 1.919239
403.700 1.922469
403.800 1.924623
403.900 1.922469
404.000 1.925700
404.100 1.927854
404.200 1.921034
404.300 1.912419
404.400 1.899139
404.500 1.885499
404.600 1.879038
404.700 1.887653
404.800 1.898421
404.900 1.907753
405.000 1.909907
405.100 1.908471
405.200 1.905599
405.300 1.896267
405.400 1.893396
405.500 1.900574
405.600 1.903087
405.700 1.905599
405.800 1.906676
405.900 1.909548
406.000 1.908830
406.100 1.895549
406.200 1.883345
406.300 1.872936
406.400 1.849605
406.500 1.801866
406.600 1.803302
406.700 1.815865
406.800 1.818378
406.900 1.816942
407.000 1.809045
407.100 1.798277
407.200 1.793252
407.300 1.790380
407.400 1.794688
407.500 1.793611
407.600 1.779612
407.700 1.768844
407.800 1.765255
407.900 1.777100
408.000 1.791457
408.100 1.798277
408.200 1.796123
408.300 1.788586
408.400 1.776382
408.500 1.766691
408.600 1.758435
408.700 1.759512
408.800 1.757358
408.900 1.754487
409.000 1.739770
409.100 1.724336
409.200 1.705671
409.300 1.671931
409.400 1.639268
409.500 1.588299
409.600 1.535894
409.700 1.474515
409.800 1.382627
409.900 1.278536
410.000 1.147882
410.100 1.038765
410.200 1.010409
410.300 1.077889
410.400 1.208184
410.500 1.348528
410.600 1.439698
410.700 1.507538
410.800 1.557789
410.900 1.588658
411.000 1.620603
411.100 1.644652
411.200 1.672290
411.300 1.692749
411.400 1.714286
411.500 1.732592
411.600 1.745513
411.700 1.744795
411.800 1.735463
411.900 1.730797
412.000 1.728643
412.100 1.729361
412.200 1.731515
412.300 1.737976
412.400 1.749462
412.500 1.761665
412.600 1.752333
412.700 1.732592
412.800 1.715721
412.900 1.707107
413.000 1.707825
413.100 1.717157
413.200 1.726849
413.300 1.739052
413.400 1.756281
413.500 1.764896
413.600 1.770639
413.700 1.774228
413.800 1.782484
413.900 1.787509
414.000 1.787150
414.100 1.780330
414.200 1.764896
414.300 1.749103
414.400 1.739770
414.500 1.747308
414.600 1.761307
