# Wavelength (nm)   F_lamA (normalized erg/cm2/s/A)9.100 0.000013
9.400 0.000024
9.600 0.000034
9.800 0.000047
10.000 0.000065
10.200 0.000089
10.400 0.000120
10.600 0.000159
10.800 0.000209
11.000 0.000272
11.400 0.000446
11.800 0.000706
12.100 0.000975
12.500 0.001460
12.700 0.001770
12.800 0.001944
13.100 0.002552
13.200 0.002786
13.400 0.003307
13.700 0.004235
14.000 0.005361
14.300 0.006719
14.700 0.008944
15.100 0.011712
15.500 0.015120
15.900 0.019257
16.200 0.022899
16.600 0.028551
17.000 0.035208
17.300 0.040918
17.700 0.049578
18.000 0.056912
18.200 0.062221
18.600 0.073926
19.100 0.090677
19.400 0.101894
19.800 0.118354
20.200 0.136562
20.500 0.151420
21.000 0.178441
21.600 0.214858
22.000 0.241588
22.300 0.262928
22.700 0.293154
23.000 7.238893
23.400 8.113620
24.000 10.436999
24.600 14.122360
25.200 17.778587
25.700 14.136926
26.000 19.745084
26.400 24.930808
26.900 25.702840
27.400 26.227240
27.900 24.581209
28.400 27.021122
29.000 27.006555
29.600 24.413693
30.100 15.943190
30.800 19.701384
31.800 25.324108
32.800 25.404224
33.800 24.705025
34.800 24.085943
35.700 24.843409
36.600 25.914057
37.500 25.426074
38.500 23.546977
39.500 24.763292
40.500 25.163875
41.400 24.865259
42.200 24.107793
43.000 23.546977
44.100 23.954843
45.100 23.656227
46.000 22.840495
47.000 22.454479
48.000 22.425346
49.000 21.536781
50.000 21.762564
50.600 23.648944
51.200 29.723234
52.000 28.936635
53.000 28.164603
54.000 26.249090
55.000 25.884924
56.000 27.436271
57.000 27.195921
58.000 26.241806
59.000 26.227240
60.000 25.243991
61.000 24.537509
62.000 25.309541
63.000 24.690459
64.000 24.581209
65.000 23.991260
65.800 23.299345
66.500 23.525127
67.500 23.401311
68.500 22.345229
69.500 22.636562
70.500 21.514931
71.600 22.032047
72.600 21.755280
73.500 21.514931
74.500 21.026948
75.500 20.648216
76.500 20.050983
77.500 19.992717
78.500 19.664967
79.500 19.431901
80.500 19.213401
81.500 18.994902
82.500 18.790969
83.500 17.764020
84.500 18.201020
85.500 17.887837
86.500 17.771304
87.500 17.538237
88.500 17.283321
89.500 17.028405
90.500 16.664239
91.500 17.181355
92.500 32.585579
93.500 45.884924
94.500 64.501092
95.500 71.143481
96.500 81.209031
97.500 50.072833
98.500 79.825200
99.500 75.163875
100.500 78.441369
101.500 74.581209
102.500 48.623452
103.500 69.067735
104.500 75.892207
105.500 74.217043
106.500 69.592134
107.500 70.145666
108.500 65.010925
109.500 68.230153
110.500 65.688274
111.500 64.471959
112.500 61.012382
113.500 62.155863
114.500 59.803350
115.500 59.104151
116.500 58.091770
117.500 51.019665
118.500 54.901675
119.500 52.410779
120.500 48.470503
121.500 32.920612
122.500 47.115805
123.500 49.315368
124.500 48.696286
125.500 48.091770
126.500 47.072105
127.500 46.744355
128.500 45.914057
129.500 43.794610
130.500 43.175528
131.500 43.277495
132.500 42.024763
133.500 40.764749
134.500 40.648216
135.500 39.941733
136.500 38.834669
137.500 38.069920
138.500 37.501821
139.500 34.748725
140.500 33.801894
141.500 35.367808
142.500 34.406409
143.500 34.093227
144.200 33.729060
144.700 33.379461
145.500 32.782229
146.500 32.112163
147.500 31.551347
148.500 31.048798
149.500 30.415149
150.500 29.723234
151.200 29.162418
151.700 29.002185
152.500 28.543336
153.500 27.297888
154.500 26.292790
155.500 25.812090
156.500 26.052440
157.500 25.950473
158.500 25.637291
159.500 25.265841
160.500 24.384559
161.500 23.940277
162.500 23.597961
163.500 23.241078
164.500 22.396213
165.500 22.687546
166.500 22.447196
167.200 21.871814
167.700 22.192280
168.500 21.864530
169.500 21.420248
170.500 20.961398
171.500 20.407866
172.500 20.116533
173.500 20.058267
174.500 19.664967
175.500 19.410051
176.500 18.929352
177.500 18.747269
178.500 18.521486
179.500 18.266570
180.500 18.040787
181.500 17.632921
182.500 17.407138
183.500 17.144938
184.500 16.613256
185.500 16.278223
186.500 16.147123
187.500 16.052440
188.500 15.528041
189.500 15.142025
190.500 15.214858
191.500 14.814275
192.500 14.493809
193.500 14.493809
194.500 14.413693
195.500 13.918427
196.700 13.932993
197.600 13.874727
198.400 13.554261
199.500 13.226511
200.500 13.190095
201.500 13.058995
202.500 12.942462
203.500 12.643846
204.500 12.476329
205.500 11.107065
206.500 11.427531
207.400 12.112163
207.800 11.930080
208.500 11.871814
209.500 11.638747
210.500 11.573197
211.500 11.471231
212.500 11.354698
213.500 11.165331
214.500 10.983248
215.500 10.917698
216.500 10.691916
217.500 10.604516
218.500 10.415149
219.500 10.356883
220.500 10.196650
221.500 9.992717
222.500 9.898034
223.500 9.796067
224.500 9.664967
225.500 9.453751
226.500 9.402768
227.500 9.293518
228.500 9.176985
229.500 8.958485
230.500 8.863802
231.500 8.798252
232.500 8.346686
233.500 8.557902
234.500 8.419519
235.500 8.353969
236.500 8.215586
237.500 8.128186
238.500 7.924253
239.500 7.916970
240.500 7.815004
241.500 7.720320
242.500 7.647487
243.500 7.530954
244.500 7.458121
245.500 7.370721
246.500 7.266570
247.500 7.177713
248.500 7.102695
249.500 6.835397
250.500 6.931537
251.300 6.683176
251.800 6.807720
252.500 6.745084
253.500 6.656956
254.500 6.571012
255.500 6.525127
256.500 6.443554
257.500 6.385288
258.500 6.312454
259.500 6.233795
260.500 6.155863
261.500 6.081573
262.500 6.020393
263.500 5.951930
264.500 5.923525
265.500 5.855062
266.500 5.771304
267.500 5.712309
268.500 5.667881
269.500 5.572469
270.500 5.534596
271.500 5.463948
272.500 5.378004
273.500 5.301529
274.500 5.256373
275.500 5.203933
276.500 5.138383
277.500 5.121631
278.500 5.060452
279.500 4.944647
280.500 4.923525
281.500 4.906773
282.500 4.829570
283.500 4.774945
284.500 4.740714
285.500 4.689002
286.500 4.648216
287.500 4.596504
288.500 4.550619
289.500 4.503277
291.000 4.438456
293.000 4.341588
295.000 4.233795
297.000 4.166788
299.000 4.081573
301.000 3.987618
303.000 3.895849
305.000 3.805535
307.000 3.717407
309.000 3.632192
311.000 3.550619
313.000 3.468318
315.000 3.392571
317.000 3.319009
319.000 3.225783
321.000 3.162418
323.000 3.104880
325.000 3.041515
327.000 2.979607
329.000 2.916242
331.000 2.858704
332.200 2.854334
332.300 2.871085
332.400 2.852149
332.500 2.840495
332.600 2.825929
332.700 2.818645
332.800 2.811362
332.900 2.810634
333.000 2.807720
333.100 2.804079
333.200 2.792425
333.300 2.767662
333.400 2.751639
333.500 2.738529
333.600 2.731974
333.700 2.719592
333.800 2.692644
333.900 2.681719
334.000 2.668609
334.100 2.694829
334.200 2.715950
334.300 2.763292
334.400 2.792425
334.500 2.815732
334.600 2.841952
334.700 2.850692
334.800 2.812090
334.900 2.740714
335.000 2.627822
335.100 2.624909
335.200 2.657684
335.300 2.674436
335.400 2.666424
335.500 2.643846
335.600 2.643846
335.700 2.651857
335.800 2.666424
335.900 2.678077
336.000 2.690459
336.100 2.682447
336.200 2.684632
336.300 2.668609
336.400 2.661326
336.500 2.634377
336.600 2.610342
336.700 2.589949
336.800 2.581937
336.900 2.594319
337.000 2.628551
337.100 2.629279
337.200 2.596504
337.300 2.583394
337.400 2.591406
337.500 2.630007
337.600 2.645302
337.700 2.608157
337.800 2.595776
337.900 2.594319
338.000 2.626366
338.100 2.655499
338.200 2.670066
338.300 2.664239
338.400 2.652586
338.500 2.660597
338.600 2.675164
338.700 2.678806
338.800 2.672251
338.900 2.656227
339.000 2.658412
339.100 2.663511
339.200 2.676621
339.300 2.684632
339.400 2.709395
339.500 2.709395
339.600 2.693372
339.700 2.656956
339.800 2.628551
339.900 2.572469
340.000 2.543336
340.100 2.561544
340.200 2.544064
340.300 2.529497
340.400 2.531682
340.500 2.538237
340.600 2.531682
340.700 2.544064
340.800 2.560087
340.900 2.571741
341.000 2.571012
341.100 2.530226
341.200 2.533139
341.300 2.557902
341.400 2.587764
341.500 2.603787
341.600 2.603059
341.700 2.599417
341.800 2.604516
341.900 2.612527
342.000 2.609614
342.100 2.605972
342.200 2.597961
342.300 2.597961
342.400 2.597961
342.500 2.590677
342.600 2.600146
342.700 2.603787
342.800 2.616169
342.900 2.615441
343.000 2.590677
343.100 2.591406
343.200 2.588492
343.300 2.595776
343.400 2.598689
343.500 2.603787
343.600 2.607429
343.700 2.600874
343.800 2.596504
343.900 2.581937
344.000 2.544064
344.100 2.526584
344.200 2.524399
344.300 2.546249
344.400 2.560087
344.500 2.541151
344.600 2.532411
344.700 2.528769
344.800 2.548434
344.900 2.565186
345.000 2.508376
345.100 2.463948
345.200 2.444283
345.300 2.443554
345.400 2.454479
345.500 2.455936
345.600 2.457393
345.700 2.456664
345.800 2.451566
345.900 2.447924
346.000 2.439913
346.100 2.436999
346.200 2.447924
346.300 2.501092
346.400 2.471959
346.500 2.471959
346.600 2.483613
346.700 2.481428
346.800 2.472688
346.900 2.466133
347.000 2.474144
347.100 2.453023
347.200 2.447924
347.300 2.466133
347.400 2.471959
347.500 2.463948
347.600 2.446468
347.700 2.399854
347.800 2.357611
347.900 2.338674
348.000 2.356883
348.100 2.388201
348.200 2.374363
348.300 2.348871
348.400 2.352513
348.500 2.396213
348.600 2.423161
348.700 2.439913
348.800 2.472688
348.900 2.478514
349.000 2.466133
349.100 2.461034
349.200 2.478514
349.300 2.478514
349.400 2.467589
349.500 2.453023
349.600 2.438456
349.700 2.443554
349.800 2.455208
349.900 2.445739
350.000 2.404224
350.100 2.372178
350.200 2.380189
350.300 2.391114
350.400 2.372178
350.500 2.344501
350.600 2.334304
350.700 2.342316
350.800 2.361981
350.900 2.365623
351.000 2.368536
351.100 2.369264
351.200 2.361981
351.300 2.347414
351.400 2.351056
351.500 2.364166
351.600 2.375819
351.700 2.365623
351.800 2.364166
351.900 2.372906
352.000 2.377276
352.100 2.369993
352.200 2.359068
352.300 2.359796
352.400 2.379461
352.500 2.368536
352.600 2.361253
352.700 2.356883
352.800 2.361253
352.900 2.375091
353.000 2.384559
353.100 2.392571
353.200 2.404953
353.300 2.392571
353.400 2.369264
353.500 2.364166
353.600 2.366351
353.700 2.350328
353.800 2.347414
353.900 2.348143
354.000 2.361253
354.100 2.369993
354.200 2.370721
354.300 2.367808
354.400 2.375091
354.500 2.379461
354.600 2.371449
354.700 2.376548
354.800 2.382374
354.900 2.378733
355.000 2.369264
355.100 2.364166
355.200 2.372906
355.300 2.378733
355.400 2.372906
355.500 2.364894
355.600 2.354698
355.700 2.357611
355.800 2.359796
355.900 2.354698
356.000 2.345958
356.100 2.356154
356.200 2.366351
356.300 2.359796
356.400 2.343044
356.500 2.341588
356.600 2.346686
356.700 2.332848
356.800 2.340131
356.900 2.331391
357.000 2.304443
357.100 2.248361
357.200 2.227968
357.300 2.229425
357.400 2.226511
357.500 2.229425
357.600 2.243263
357.700 2.241078
357.800 2.232338
357.900 2.225055
358.000 2.231610
358.100 2.242535
358.200 2.240350
358.300 2.231610
358.400 2.227240
358.500 2.221413
358.600 2.215586
358.700 2.209031
358.800 2.199563
358.900 2.202476
359.000 2.219956
359.100 2.223598
359.200 2.213401
359.300 2.212673
359.400 2.216315
359.500 2.217043
359.600 2.212673
359.700 2.217043
359.800 2.222141
359.900 2.226511
360.000 2.238165
360.100 2.237436
360.200 2.244720
360.300 2.237436
360.400 2.225783
360.500 2.221413
360.600 2.222141
360.700 2.224326
360.800 2.233795
360.900 2.243991
361.000 2.246905
361.100 2.227240
361.200 2.222141
361.300 2.214858
361.400 2.203933
361.500 2.200291
361.600 2.213401
361.700 2.223598
361.800 2.239621
361.900 2.252003
362.000 2.236708
362.100 2.233066
362.200 2.251275
362.300 2.252003
362.400 2.243991
362.500 2.243991
362.600 2.256373
362.700 2.264385
362.800 2.256373
362.900 2.243263
363.000 2.246905
363.100 2.251275
363.200 2.246905
363.300 2.240350
363.400 2.257101
363.500 2.249090
363.600 2.201020
363.700 2.182811
363.800 2.185725
363.900 2.188638
364.000 2.194465
364.100 2.203205
364.200 2.210488
364.300 2.200291
364.400 2.181355
364.500 2.179170
364.600 2.172615
364.700 2.175528
364.800 2.181355
364.900 2.182811
365.000 2.182083
365.100 2.174800
365.200 2.169701
365.300 2.166788
365.400 2.163875
365.500 2.166060
365.600 2.173343
365.700 2.167516
365.800 2.158776
365.900 2.151493
366.000 2.141296
366.100 2.142025
366.200 2.141296
366.300 2.150765
366.400 2.152950
366.500 2.143481
366.600 2.139111
366.700 2.131100
366.800 2.128915
366.900 2.136198
367.000 2.142025
367.100 2.138383
367.200 2.132556
367.300 2.122360
367.400 2.117990
367.500 2.109978
367.600 2.116533
367.700 2.108521
367.800 2.101966
367.900 2.101238
368.000 2.104880
368.100 2.115805
368.200 2.114348
368.300 2.109978
368.400 2.107065
368.500 2.096868
368.600 2.081573
368.700 2.080845
368.800 2.104151
368.900 2.134741
369.000 2.125273
369.100 2.090313
369.200 2.094683
369.300 2.120175
369.400 2.141296
369.500 2.129643
369.600 2.085943
369.700 2.062637
369.800 2.064093
369.900 2.117990
370.000 2.176256
370.100 2.178441
370.200 2.117261
370.300 2.014567
370.400 1.966497
370.500 1.967225
370.600 2.040787
370.700 2.111435
370.800 2.166788
370.900 2.138383
371.000 2.061180
371.100 1.976693
371.200 1.930808
371.300 1.957028
371.400 2.037145
371.500 2.161690
371.600 2.226511
371.700 2.254188
371.800 2.241806
371.900 2.156591
372.000 2.008012
372.100 1.925710
372.200 1.881282
372.300 1.930808
372.400 2.022578
372.500 2.136926
372.600 2.184996
372.700 2.248361
372.800 2.274581
372.900 2.281865
373.000 2.260015
373.100 2.186453
373.200 2.055353
373.300 1.932993
373.400 1.831027
373.500 1.818645
373.600 1.890750
373.700 2.034960
373.800 2.140568
373.900 2.261471
374.000 2.320466
374.100 2.357611
374.200 2.361253
374.300 2.340131
374.400 2.316824
374.500 2.279680
374.600 2.206118
374.700 2.094683
374.800 1.966497
374.900 1.808449
375.000 1.765477
375.100 1.802622
375.200 1.913328
375.300 2.019665
375.400 2.142753
375.500 2.206118
375.600 2.265113
375.700 2.273853
375.800 2.265841
375.900 2.251275
376.000 2.235980
376.100 2.229425
376.200 2.274581
376.300 2.289148
376.400 2.270211
376.500 2.225055
376.600 2.155863
376.700 2.078660
376.800 1.954115
376.900 1.810634
377.000 1.702112
377.100 1.667881
377.200 1.762564
377.300 1.908958
377.400 2.030590
377.500 2.130371
377.600 2.201020
377.700 2.246905
377.800 2.289148
377.900 2.310269
378.000 2.332119
378.100 2.345958
378.200 2.356154
378.300 2.344501
378.400 2.335761
378.500 2.344501
378.600 2.344501
378.700 2.336489
378.800 2.326293
378.900 2.308084
379.000 2.280408
379.100 2.246176
379.200 2.203933
379.300 2.150765
379.400 2.077203
379.500 1.947560
379.600 1.802622
379.700 1.656227
379.800 1.591406
379.900 1.655499
380.000 1.819374
380.100 1.957757
380.200 2.077932
380.300 2.146395
380.400 2.195921
380.500 2.239621
380.600 2.251275
380.700 2.270211
380.800 2.293518
380.900 2.317553
381.000 2.340131
381.100 2.352513
381.200 2.342316
381.300 2.322651
381.400 2.308813
381.500 2.302258
381.600 2.294246
381.700 2.281865
381.800 2.250546
381.900 2.211216
382.000 2.190823
382.100 2.200291
382.200 2.251275
382.300 2.267298
382.400 2.262200
382.500 2.243991
382.600 2.215586
382.700 2.205390
382.800 2.184996
382.900 2.141296
383.000 2.089585
383.100 2.013838
383.200 1.918427
383.300 1.781500
383.400 1.602331
383.500 1.520757
383.600 1.522214
383.700 1.635106
383.800 1.777859
383.900 1.926438
384.000 2.016752
384.100 2.097597
384.200 2.147123
384.300 2.198835
384.400 2.236708
384.500 2.264385
384.600 2.270211
384.700 2.275310
384.800 2.273853
384.900 2.276766
385.000 2.279680
385.100 2.297888
385.200 2.310269
385.300 2.302986
385.400 2.281136
385.500 2.260015
385.600 2.245448
385.700 2.249818
385.800 2.271668
385.900 2.294975
386.000 2.306628
386.100 2.302258
386.200 2.272396
386.300 2.225055
386.400 2.220685
386.500 2.225783
386.600 2.227968
386.700 2.239621
386.800 2.247633
386.900 2.247633
387.000 2.238165
387.100 2.219228
387.200 2.202476
387.300 2.203205
387.400 2.216315
387.500 2.229425
387.600 2.221413
387.700 2.203933
387.800 2.193736
387.900 2.187910
388.000 2.184268
388.100 2.155863
388.200 2.113620
388.300 2.072105
388.400 2.023307
388.500 1.938092
388.600 1.817189
388.700 1.643846
388.800 1.492353
388.900 1.428259
389.000 1.496723
389.100 1.654042
389.200 1.831027
389.300 1.946832
389.400 2.032047
389.500 2.083758
389.600 2.124545
389.700 2.160233
389.800 2.178441
389.900 2.187181
390.000 2.193008
390.100 2.211945
390.200 2.233066
390.300 2.246905
390.400 2.250546
390.500 2.242535
390.600 2.232338
390.700 2.240350
390.800 2.265113
390.900 2.279680
391.000 2.275310
391.100 2.278223
391.200 2.275310
391.300 2.259286
391.400 2.249818
391.500 2.255645
391.600 2.264385
391.700 2.265841
391.800 2.254916
391.900 2.232338
392.000 2.225783
392.100 2.225055
392.200 2.214858
392.300 2.192280
392.400 2.184996
392.500 2.195193
392.600 2.191551
392.700 2.201020
392.800 2.202476
392.900 2.201748
393.000 2.193008
393.100 2.144938
393.200 2.005827
393.300 1.818645
393.400 1.826657
393.500 1.982520
393.600 2.115076
393.700 2.176256
393.800 2.203205
393.900 2.217771
394.000 2.233795
394.100 2.244720
394.200 2.243263
394.300 2.222141
394.400 2.203933
394.500 2.183540
394.600 2.173343
394.700 2.179170
394.800 2.184996
394.900 2.183540
395.000 2.177713
395.100 2.167516
395.200 2.158776
395.300 2.155135
395.400 2.153678
395.500 2.140568
395.600 2.123816
395.700 2.113620
395.800 2.110706
395.900 2.108521
396.000 2.093955
396.100 2.072833
396.200 2.038602
396.300 1.995630
396.400 1.939548
396.500 1.870357
396.600 1.767662
396.700 1.561544
396.800 1.338674
396.900 1.225055
397.000 1.230881
397.100 1.344501
397.200 1.517116
397.300 1.667881
397.400 1.792425
397.500 1.879825
397.600 1.938820
397.700 1.979607
397.800 1.996358
397.900 2.029862
398.000 2.049527
398.100 2.066278
398.200 2.073562
398.300 2.074290
398.400 2.083758
398.500 2.094683
398.600 2.082302
398.700 2.056082
398.800 2.101238
398.900 2.115076
399.000 2.126001
399.100 2.131828
399.200 2.130371
399.300 2.126730
399.400 2.116533
399.500 2.119446
399.600 2.112891
399.700 2.111435
399.800 2.115805
399.900 2.122360
400.000 2.105608
400.100 2.090313
400.200 2.088128
400.300 2.085215
400.400 2.087400
400.500 2.091770
400.600 2.093227
400.700 2.090313
400.800 2.084487
400.900 2.070648
401.000 2.067735
401.100 2.082302
401.200 2.093955
401.300 2.102695
401.400 2.106336
401.500 2.107065
401.600 2.111435
401.700 2.121631
401.800 2.129643
401.900 2.135470
402.000 2.131100
402.100 2.119446
402.200 2.108521
402.300 2.072105
402.400 2.012382
402.500 1.955572
402.600 1.937363
402.700 1.971595
402.800 2.033503
402.900 2.072833
403.000 2.105608
403.100 2.111435
403.200 2.111435
403.300 2.107793
403.400 2.106336
403.500 2.112163
403.600 2.116533
403.700 2.115805
403.800 2.116533
403.900 2.112163
404.000 2.115805
404.100 2.123816
404.200 2.117261
404.300 2.107065
404.400 2.096868
404.500 2.086672
404.600 2.083030
404.700 2.093227
404.800 2.103423
404.900 2.109978
405.000 2.108521
405.100 2.105608
405.200 2.107793
405.300 2.099053
405.400 2.097597
405.500 2.105608
405.600 2.104880
405.700 2.105608
405.800 2.109250
405.900 2.110706
406.000 2.108521
406.100 2.094683
406.200 2.080845
406.300 2.074290
406.400 2.041515
406.500 1.967225
406.600 1.981063
406.700 2.007283
406.800 2.008012
406.900 2.000728
407.000 1.988347
407.100 1.979607
407.200 1.981063
407.300 1.977422
407.400 1.981792
407.500 1.979607
407.600 1.966497
407.700 1.957028
407.800 1.958485
407.900 1.975237
408.000 1.988347
408.100 1.992717
408.200 1.990532
408.300 1.984705
408.400 1.967953
408.500 1.961398
408.600 1.954115
408.700 1.962127
408.800 1.963583
408.900 1.957757
409.000 1.940277
409.100 1.926438
409.200 1.915513
409.300 1.892935
409.400 1.864530
409.500 1.817917
409.600 1.768390
409.700 1.714494
409.800 1.620539
409.900 1.504734
410.000 1.362709
410.100 1.235251
410.200 1.211216
410.300 1.301529
410.400 1.458849
410.500 1.607429
410.600 1.699199
410.700 1.755280
410.800 1.800437
410.900 1.823015
411.000 1.845594
411.100 1.865259
411.200 1.884924
411.300 1.900218
411.400 1.918427
411.500 1.935178
411.600 1.946832
411.700 1.940277
411.800 1.923525
411.900 1.911143
412.000 1.901675
412.100 1.905317
412.200 1.911872
412.300 1.924253
412.400 1.935178
412.500 1.943918
412.600 1.934450
412.700 1.913328
412.800 1.893664
412.900 1.885652
413.000 1.888565
413.100 1.899490
413.200 1.910415
413.300 1.921340
413.400 1.938092
413.500 1.947560
413.600 1.949745
413.700 1.948288
413.800 1.953387
413.900 1.954115
414.000 1.954115
414.100 1.947560
414.200 1.924982
414.300 1.903860
