# Wavelength (nm)   F_lamA (normalized erg/cm2/s/A)9.100 0.000046
9.400 0.000081
9.600 0.000116
9.800 0.000163
10.000 0.000225
10.200 0.000307
10.400 0.000412
10.600 0.000548
10.800 0.000720
11.000 0.000936
11.400 0.001536
11.800 0.002430
12.100 0.003356
12.500 0.005030
12.700 0.006096
12.800 0.006697
13.100 0.008791
13.200 0.009598
13.400 0.011391
13.700 0.014584
14.000 0.018469
14.300 0.023145
14.700 0.030797
15.100 0.040344
15.500 0.052096
15.900 0.066344
16.200 0.078871
16.600 0.098352
17.000 0.121275
17.300 0.140950
17.700 0.170778
18.000 0.196050
18.200 0.214345
18.600 0.254664
19.100 0.312333
19.400 0.351102
19.800 0.407802
20.200 0.470317
20.500 0.521444
21.000 0.614732
21.600 0.740247
22.000 0.832324
22.300 0.905743
22.700 1.009935
23.000 24.933366
23.400 27.937969
24.000 35.837170
24.600 48.243276
25.200 60.649382
25.700 48.534044
26.000 67.312818
26.400 84.395445
26.900 86.842743
27.400 88.660044
27.900 83.256603
28.400 91.131573
29.000 91.010419
29.600 82.626605
30.100 54.761328
30.800 67.143203
31.800 85.364672
32.800 85.631209
33.800 83.183911
34.800 81.051611
35.700 83.523140
36.600 86.963896
37.500 85.291980
38.500 79.016235
39.500 82.941604
40.500 84.153138
41.400 83.062757
42.200 80.518536
43.000 78.604313
44.100 79.791616
45.100 78.677005
46.000 75.890477
47.000 74.460867
48.000 74.194330
49.000 71.141265
50.000 71.698570
50.600 74.388175
51.200 88.320814
52.000 86.115823
53.000 83.862370
54.000 78.434698
55.000 76.690090
56.000 80.566998
57.000 79.646232
58.000 77.029319
59.000 76.544706
60.000 73.733947
61.000 71.189726
62.000 72.885874
63.000 70.898958
64.000 70.487037
65.000 68.572813
65.800 66.464744
66.500 66.949358
67.500 66.295130
68.500 63.363218
69.500 63.726678
70.500 60.649382
71.600 61.521686
72.600 60.600921
73.500 59.704386
74.500 58.202084
75.500 56.966319
76.500 55.149019
77.500 54.834020
78.500 53.598255
79.500 52.822874
80.500 52.095953
81.500 51.320572
82.500 50.545190
83.500 47.952508
84.500 48.655197
85.500 47.613278
86.500 47.128665
87.500 46.353283
88.500 45.505210
89.500 44.657136
90.500 43.542525
91.500 44.245214
92.500 66.585898
93.500 84.565059
94.500 105.645748
95.500 111.218803
96.500 122.558759
97.500 88.853889
98.500 117.082627
99.500 109.062273
100.500 112.769566
101.500 109.449964
102.500 82.723528
103.500 103.222680
104.500 106.106130
105.500 103.634601
106.500 98.740005
107.500 97.746547
108.500 91.107342
109.500 94.281560
110.500 91.180034
111.500 89.144657
112.500 85.291980
113.500 85.558517
114.500 83.086988
115.500 81.075842
116.500 79.307003
117.500 71.868185
118.500 75.139326
119.500 72.861643
120.500 69.638963
121.500 54.204022
122.500 66.949358
123.500 67.094742
124.500 65.810516
125.500 65.010904
126.500 63.678217
127.500 62.636298
128.500 61.400533
129.500 59.340926
130.500 58.226315
131.500 57.620548
132.500 56.094015
133.500 54.737097
134.500 54.034408
135.500 52.847104
136.500 51.465956
137.500 50.254422
138.500 49.479040
139.500 46.038284
140.500 44.075600
141.500 46.571359
142.500 45.287134
143.500 44.754059
144.200 44.051369
144.700 43.615217
145.500 42.815605
146.500 41.991762
147.500 41.216380
148.500 40.586382
149.500 39.689847
150.500 38.914466
151.200 38.308699
151.700 37.945239
152.500 37.339472
153.500 35.982554
154.500 34.213715
155.500 33.777562
156.500 34.019869
157.500 33.704870
158.500 33.220257
159.500 32.638721
160.500 31.596802
161.500 30.991035
162.500 30.457960
163.500 29.755270
164.500 28.495275
165.500 29.149503
166.500 28.713351
167.200 28.059123
167.700 28.325660
168.500 27.865277
169.500 27.356433
170.500 26.774897
171.500 26.047977
172.500 25.684517
173.500 25.514902
174.500 25.030288
175.500 24.594136
176.500 24.131330
177.500 23.792101
178.500 23.435910
179.500 23.040950
180.500 22.704143
181.500 22.260722
182.500 21.904531
183.500 21.565302
184.500 21.054034
185.500 20.661497
186.500 20.385268
187.500 20.133269
188.500 19.648655
189.500 19.268234
190.500 19.127696
191.500 18.723043
192.500 18.325660
193.500 18.197238
194.500 17.988854
195.500 17.535740
196.700 17.358856
197.600 17.184395
198.400 16.886358
199.500 16.530167
200.500 16.367822
201.500 16.144899
202.500 15.936516
203.500 15.631209
204.500 15.393748
205.500 12.985219
206.500 13.554640
207.400 14.795251
207.800 14.739520
208.500 14.630482
209.500 14.412406
210.500 14.235522
211.500 14.104677
212.500 13.908408
213.500 13.683063
214.500 13.457717
215.500 13.372910
216.500 13.050642
217.500 12.975527
218.500 12.682336
219.500 12.629028
220.500 12.435183
221.500 12.129876
222.500 12.062031
223.500 11.909377
224.500 11.737339
225.500 11.432033
226.500 11.405379
227.500 11.252726
228.500 11.095227
229.500 10.850497
230.500 10.649382
231.500 10.627575
232.500 10.293191
233.500 10.324691
234.500 10.169615
235.500 10.058154
236.500 9.900654
237.500 9.777078
238.500 9.476617
239.500 9.503271
240.500 9.377272
241.500 9.253695
242.500 9.151926
243.500 9.016235
244.500 8.907197
245.500 8.788466
246.500 8.672159
247.500 8.558275
248.500 8.454083
249.500 8.148776
250.500 8.226315
251.300 7.826508
251.800 8.073661
252.500 8.008238
253.500 7.906470
254.500 7.802278
255.500 7.722316
256.500 7.622971
257.500 7.538163
258.500 7.443664
259.500 7.344318
260.500 7.252241
261.500 7.157742
262.500 7.077780
263.500 6.992973
264.500 6.934819
265.500 6.850012
266.500 6.755512
267.500 6.675551
268.500 6.610128
269.500 6.508360
270.500 6.447783
271.500 6.362976
272.500 6.268476
273.500 6.113400
274.500 6.118246
275.500 6.052823
276.500 5.975285
277.500 5.931669
278.500 5.858977
279.500 5.745093
280.500 5.699055
281.500 5.665132
282.500 5.585171
283.500 5.522171
284.500 5.468864
285.500 5.403441
286.500 5.350133
287.500 5.287134
288.500 5.231403
289.500 5.170826
291.000 5.090865
293.000 4.976981
295.000 4.853404
297.000 4.761328
299.000 4.657136
301.000 4.545675
303.000 4.431791
305.000 4.322753
307.000 4.218561
309.000 4.119215
311.000 4.017446
313.000 3.920523
315.000 3.830870
317.000 3.741216
319.000 3.637024
321.000 3.542525
323.000 3.486794
325.000 3.409256
327.000 3.334141
329.000 3.261449
331.000 3.193603
332.200 3.159680
332.300 3.171795
332.400 3.157257
332.500 3.145142
332.600 3.128180
332.700 3.113642
332.800 3.099103
332.900 3.099103
333.000 3.096680
333.100 3.094257
333.200 3.086988
333.300 3.067604
333.400 3.050642
333.500 3.036104
333.600 3.019142
333.700 3.016719
333.800 3.014296
333.900 3.002181
334.000 2.982796
334.100 2.987642
334.200 3.004604
334.300 3.062757
334.400 3.099103
334.500 3.128180
334.600 3.147565
334.700 3.149988
334.800 3.111219
334.900 3.045796
335.000 2.934335
335.100 2.919796
335.200 2.941604
335.300 2.951296
335.400 2.946450
335.500 2.931912
335.600 2.936758
335.700 2.944027
335.800 2.953719
335.900 2.956142
336.000 2.953719
336.100 2.948873
336.200 2.956142
336.300 2.953719
336.400 2.951296
336.500 2.922220
336.600 2.895566
336.700 2.873758
336.800 2.868912
336.900 2.873758
337.000 2.893143
337.100 2.893143
337.200 2.864066
337.300 2.859220
337.400 2.873758
337.500 2.900412
337.600 2.912527
337.700 2.890720
337.800 2.881027
337.900 2.888297
338.000 2.914950
338.100 2.941604
338.200 2.944027
338.300 2.934335
338.400 2.919796
338.500 2.939181
338.600 2.968258
338.700 2.985219
338.800 2.980373
338.900 2.951296
339.000 2.944027
339.100 2.941604
339.200 2.958566
339.300 2.973104
339.400 3.009450
339.500 3.009450
339.600 2.985219
339.700 2.953719
339.800 2.924643
339.900 2.861643
340.000 2.822874
340.100 2.822874
340.200 2.808335
340.300 2.796220
340.400 2.808335
340.500 2.820451
340.600 2.815605
340.700 2.818028
340.800 2.827720
340.900 2.832566
341.000 2.834989
341.100 2.805912
341.200 2.805912
341.300 2.827720
341.400 2.854374
341.500 2.868912
341.600 2.864066
341.700 2.861643
341.800 2.866489
341.900 2.871335
342.000 2.868912
342.100 2.868912
342.200 2.864066
342.300 2.873758
342.400 2.873758
342.500 2.864066
342.600 2.864066
342.700 2.866489
342.800 2.885874
342.900 2.890720
343.000 2.871335
343.100 2.861643
343.200 2.847104
343.300 2.847104
343.400 2.849528
343.500 2.866489
343.600 2.873758
343.700 2.868912
343.800 2.847104
343.900 2.825297
344.000 2.786528
344.100 2.769566
344.200 2.774412
344.300 2.796220
344.400 2.810758
344.500 2.788951
344.600 2.776835
344.700 2.771989
344.800 2.791374
344.900 2.813181
345.000 2.759874
345.100 2.716259
345.200 2.699297
345.300 2.701720
345.400 2.713836
345.500 2.713836
345.600 2.713836
345.700 2.708990
345.800 2.699297
345.900 2.689605
346.000 2.682336
346.100 2.682336
346.200 2.701720
346.300 2.786528
346.400 2.745336
346.500 2.735643
346.600 2.745336
346.700 2.740489
346.800 2.733220
346.900 2.738066
347.000 2.742913
347.100 2.704143
347.200 2.696874
347.300 2.725951
347.400 2.721105
347.500 2.704143
347.600 2.679913
347.700 2.629028
347.800 2.585413
347.900 2.578144
348.000 2.604798
348.100 2.643567
348.200 2.631451
348.300 2.599952
348.400 2.609644
348.500 2.662951
348.600 2.679913
348.700 2.692028
348.800 2.723528
348.900 2.730797
349.000 2.711413
349.100 2.704143
349.200 2.725951
349.300 2.723528
349.400 2.716259
349.500 2.699297
349.600 2.665374
349.700 2.667797
349.800 2.687182
349.900 2.701720
350.000 2.672644
350.100 2.616913
350.200 2.619336
350.300 2.633874
350.400 2.616913
350.500 2.585413
350.600 2.575721
350.700 2.587836
350.800 2.599952
350.900 2.599952
351.000 2.597528
351.100 2.597528
351.200 2.590259
351.300 2.575721
351.400 2.585413
351.500 2.590259
351.600 2.607221
351.700 2.592682
351.800 2.592682
351.900 2.602375
352.000 2.604798
352.100 2.599952
352.200 2.592682
352.300 2.590259
352.400 2.609644
352.500 2.578144
352.600 2.575721
352.700 2.578144
352.800 2.590259
352.900 2.607221
353.000 2.612067
353.100 2.621759
353.200 2.633874
353.300 2.616913
353.400 2.585413
353.500 2.580567
353.600 2.585413
353.700 2.563606
353.800 2.561182
353.900 2.566029
354.000 2.587836
354.100 2.599952
354.200 2.597528
354.300 2.585413
354.400 2.587836
354.500 2.592682
354.600 2.578144
354.700 2.585413
354.800 2.599952
354.900 2.602375
355.000 2.582990
355.100 2.568452
355.200 2.575721
355.300 2.587836
355.400 2.590259
355.500 2.578144
355.600 2.561182
355.700 2.566029
355.800 2.575721
355.900 2.573298
356.000 2.566029
356.100 2.575721
356.200 2.587836
356.300 2.578144
356.400 2.563606
356.500 2.570875
356.600 2.578144
356.700 2.553913
356.800 2.556336
356.900 2.546644
357.000 2.512721
357.100 2.454567
357.200 2.444875
357.300 2.449721
357.400 2.442452
357.500 2.442452
357.600 2.452144
357.700 2.452144
357.800 2.449721
357.900 2.440029
358.000 2.447298
358.100 2.456991
358.200 2.454567
358.300 2.452144
358.400 2.444875
358.500 2.437606
358.600 2.427914
358.700 2.419918
358.800 2.411437
358.900 2.408772
359.000 2.427914
359.100 2.440029
359.200 2.432760
359.300 2.432760
359.400 2.435183
359.500 2.427914
359.600 2.420887
359.700 2.422583
359.800 2.425491
359.900 2.432760
360.000 2.456991
360.100 2.452144
360.200 2.454567
360.300 2.440029
360.400 2.427914
360.500 2.427914
360.600 2.430337
360.700 2.430337
360.800 2.440029
360.900 2.449721
361.000 2.442452
361.100 2.412648
361.200 2.411437
361.300 2.404168
361.400 2.389872
361.500 2.393022
361.600 2.414829
361.700 2.430337
361.800 2.440029
361.900 2.442452
362.000 2.419433
362.100 2.414587
362.200 2.437606
362.300 2.440029
362.400 2.427914
362.500 2.425491
362.600 2.440029
362.700 2.447298
362.800 2.435183
362.900 2.422583
363.000 2.430337
363.100 2.437606
363.200 2.425491
363.300 2.413133
363.400 2.430337
363.500 2.427914
363.600 2.380664
363.700 2.359099
363.800 2.362733
363.900 2.363702
364.000 2.370487
364.100 2.384541
364.200 2.387933
364.300 2.365641
364.400 2.338018
364.500 2.336806
364.600 2.344318
364.700 2.349406
364.800 2.356191
364.900 2.362733
365.000 2.361279
365.100 2.348679
365.200 2.344560
365.300 2.341895
365.400 2.336322
365.500 2.341895
365.600 2.344076
365.700 2.338018
365.800 2.335110
365.900 2.330749
366.000 2.319603
366.100 2.312091
366.200 2.308457
366.300 2.318876
366.400 2.326145
366.500 2.319360
366.600 2.312818
366.700 2.301672
366.800 2.297068
366.900 2.303126
367.000 2.306276
367.100 2.302883
367.200 2.298280
367.300 2.294887
367.400 2.292949
367.500 2.289557
367.600 2.297068
367.700 2.280107
367.800 2.271141
367.900 2.272110
368.000 2.279137
368.100 2.291980
368.200 2.293676
368.300 2.285195
368.400 2.274534
368.500 2.266295
368.600 2.256845
368.700 2.260964
368.800 2.282530
368.900 2.310395
369.000 2.306276
369.100 2.275745
369.200 2.283741
369.300 2.305307
369.400 2.307245
369.500 2.297310
369.600 2.262903
369.700 2.242064
369.800 2.246668
369.900 2.295614
370.000 2.351587
370.100 2.343591
370.200 2.282530
370.300 2.191422
370.400 2.151442
370.500 2.149988
370.600 2.212745
370.700 2.277684
370.800 2.320572
370.900 2.295614
371.000 2.226315
371.100 2.156530
371.200 2.116065
371.300 2.140780
371.400 2.214684
371.500 2.325660
371.600 2.372668
371.700 2.391325
371.800 2.381149
371.900 2.300218
372.000 2.161861
372.100 2.091592
372.200 2.057911
372.300 2.103465
372.400 2.182457
372.500 2.277926
372.600 2.319845
372.700 2.368306
372.800 2.392052
372.900 2.400291
373.000 2.386237
373.100 2.324449
373.200 2.206203
373.300 2.096438
373.400 2.001938
373.500 1.991035
373.600 2.049673
373.700 2.175188
373.800 2.271141
373.900 2.383572
374.000 2.437606
374.100 2.461837
374.200 2.454567
374.300 2.427914
374.400 2.409014
374.500 2.381391
374.600 2.312333
374.700 2.206930
374.800 2.092319
374.900 1.949600
375.000 1.919554
375.100 1.964866
375.200 2.070996
375.300 2.163315
375.400 2.266295
375.500 2.324691
375.600 2.372425
375.700 2.368064
375.800 2.346741
375.900 2.326145
376.000 2.310153
376.100 2.299976
376.200 2.351587
376.300 2.380179
376.400 2.365883
376.500 2.329053
376.600 2.262661
376.700 2.188999
376.800 2.079477
376.900 1.954931
377.000 1.856797
377.100 1.833293
377.200 1.919796
377.300 2.059123
377.400 2.164526
377.500 2.248364
377.600 2.303126
377.700 2.338503
377.800 2.374364
377.900 2.388175
378.000 2.404168
378.100 2.414829
378.200 2.420887
378.300 2.407318
378.400 2.399564
378.500 2.414102
378.600 2.412891
378.700 2.394233
378.800 2.378725
378.900 2.366610
379.000 2.347953
379.100 2.326145
379.200 2.300703
379.300 2.258057
379.400 2.181245
379.500 2.059365
379.600 1.925127
379.700 1.793070
379.800 1.742670
379.900 1.802035
380.000 1.964139
380.100 2.094500
380.200 2.200630
380.300 2.258784
380.400 2.299491
380.500 2.334383
380.600 2.325418
380.700 2.336806
380.800 2.359341
380.900 2.382360
381.000 2.405137
381.100 2.412406
381.200 2.389872
381.300 2.364187
381.400 2.347226
381.500 2.343106
381.600 2.339714
381.700 2.339229
381.800 2.316695
381.900 2.284226
382.000 2.262176
382.100 2.261207
382.200 2.309426
382.300 2.332203
382.400 2.320572
382.500 2.298037
382.600 2.271384
382.700 2.274776
382.800 2.269930
382.900 2.231645
383.000 2.183669
383.100 2.114853
383.200 2.020596
383.300 1.891447
383.400 1.728374
383.500 1.653259
383.600 1.660771
383.700 1.775866
383.800 1.909377
383.900 2.039981
384.000 2.114369
384.100 2.182699
384.200 2.226315
384.300 2.275987
384.400 2.317422
384.500 2.347226
384.600 2.341653
384.700 2.339472
384.800 2.333414
384.900 2.336564
385.000 2.331960
385.100 2.347710
385.200 2.359341
385.300 2.354979
385.400 2.336322
385.500 2.315968
385.600 2.298037
385.700 2.294645
385.800 2.308941
385.900 2.335837
386.000 2.347226
386.100 2.354010
386.200 2.332687
386.300 2.291737
386.400 2.285680
386.500 2.282287
386.600 2.281560
386.700 2.295614
386.800 2.309910
386.900 2.310153
387.000 2.295130
387.100 2.270414
387.200 2.249334
387.300 2.249576
387.400 2.266295
387.500 2.283499
387.600 2.278168
387.700 2.257330
387.800 2.246184
387.900 2.246911
388.000 2.256603
388.100 2.236976
388.200 2.198449
388.300 2.159922
388.400 2.118003
388.500 2.036346
388.600 1.917858
388.700 1.747759
388.800 1.608190
388.900 1.550279
389.000 1.634117
389.100 1.795978
389.200 1.963412
389.300 2.064211
389.400 2.133511
389.500 2.171795
389.600 2.200145
389.700 2.226072
389.800 2.236734
389.900 2.236734
390.000 2.242064
390.100 2.260964
390.200 2.280107
390.300 2.290768
390.400 2.293676
390.500 2.289072
390.600 2.275018
390.700 2.285680
390.800 2.317664
390.900 2.333899
391.000 2.324206
391.100 2.323237
391.200 2.316453
391.300 2.290283
391.400 2.280349
391.500 2.293433
391.600 2.303368
391.700 2.303368
391.800 2.294403
391.900 2.269445
392.000 2.259268
392.100 2.255634
392.200 2.242549
392.300 2.219288
392.400 2.215895
392.500 2.227768
392.600 2.223891
392.700 2.225830
392.800 2.220984
392.900 2.214441
393.000 2.195299
393.100 2.130603
393.200 1.963654
393.300 1.722316
393.400 1.743639
393.500 1.953477
393.600 2.105646
393.700 2.173492
393.800 2.206203
393.900 2.224618
394.000 2.247395
394.100 2.260722
394.200 2.259511
394.300 2.241580
394.400 2.233341
394.500 2.211291
394.600 2.204749
394.700 2.211534
394.800 2.214199
394.900 2.210565
395.000 2.205476
395.100 2.197965
395.200 2.191665
395.300 2.192634
395.400 2.191907
395.500 2.181245
395.600 2.165253
395.700 2.150472
395.800 2.146596
395.900 2.149988
396.000 2.143930
396.100 2.128180
396.200 2.094015
396.300 2.048946
396.400 1.992488
396.500 1.925854
396.600 1.820693
396.700 1.589048
396.800 1.350133
396.900 1.257572
397.000 1.305307
397.100 1.435668
397.200 1.613763
397.300 1.754301
397.400 1.868427
397.500 1.949358
397.600 2.010177
397.700 2.044342
397.800 2.059123
397.900 2.088442
398.000 2.101284
398.100 2.109280
398.200 2.107827
398.300 2.104919
398.400 2.117519
398.500 2.131330
398.600 2.103223
398.700 2.055004
398.800 2.115823
398.900 2.137146
399.000 2.151926
399.100 2.163072
399.200 2.167192
399.300 2.164769
399.400 2.150472
399.500 2.145626
399.600 2.133753
399.700 2.130603
399.800 2.135207
399.900 2.144899
400.000 2.132299
400.100 2.121153
400.200 2.119700
400.300 2.116307
400.400 2.117034
400.500 2.115823
400.600 2.116065
400.700 2.116307
400.800 2.118488
400.900 2.110734
401.000 2.105161
401.100 2.115096
401.200 2.119215
401.300 2.124546
401.400 2.131815
401.500 2.135692
401.600 2.139569
401.700 2.147807
401.800 2.158226
401.900 2.165496
402.000 2.161861
402.100 2.146596
402.200 2.133996
402.300 2.098619
402.400 2.042404
402.500 1.986915
402.600 1.977708
402.700 2.012842
402.800 2.068331
402.900 2.098861
403.000 2.126726
403.100 2.129392
403.200 2.130846
403.300 2.129392
403.400 2.130603
403.500 2.135692
403.600 2.138842
403.700 2.141023
403.800 2.143688
403.900 2.138842
404.000 2.141023
404.100 2.147565
404.200 2.141265
404.300 2.131815
404.400 2.122123
404.500 2.109280
404.600 2.103707
404.700 2.120184
404.800 2.134965
404.900 2.137873
405.000 2.131815
405.100 2.130361
405.200 2.134965
405.300 2.124788
405.400 2.122123
405.500 2.130846
405.600 2.133511
405.700 2.136661
405.800 2.142961
405.900 2.145869
406.000 2.138357
406.100 2.114611
406.200 2.102011
406.300 2.101527
406.400 2.060819
406.500 1.971892
406.600 2.001454
406.700 2.041677
406.800 2.044100
406.900 2.035377
407.000 2.021565
407.100 2.011873
407.200 2.017204
407.300 2.013811
407.400 2.021323
407.500 2.017446
407.600 1.998304
407.700 1.984492
407.800 1.988127
407.900 2.013085
408.000 2.032711
408.100 2.038284
408.200 2.034408
408.300 2.029804
408.400 2.011146
408.500 2.004119
408.600 1.996850
408.700 2.007269
408.800 2.016961
408.900 2.015992
409.000 2.000727
409.100 1.989096
409.200 1.984735
409.300 1.963412
409.400 1.936031
409.500 1.893870
409.600 1.848558
409.700 1.798643
409.800 1.706809
409.900 1.596075
410.000 1.461352
410.100 1.342379
410.200 1.318149
410.300 1.412891
410.400 1.569906
410.500 1.721105
410.600 1.802520
410.700 1.847831
410.800 1.883693
410.900 1.897989
411.000 1.912770
411.100 1.929004
411.200 1.945723
411.300 1.960019
411.400 1.979404
411.500 1.999031
411.600 2.008965
411.700 1.997335
411.800 1.971408
411.900 1.954689
412.000 1.950569
412.100 1.955173
412.200 1.955416
412.300 1.963169
412.400 1.976254
412.500 1.989096
412.600 1.986915
412.700 1.965592
412.800 1.941362
412.900 1.936758
413.000 1.944027
413.100 1.951539
413.200 1.955173
413.300 1.962200
413.400 1.978919
413.500 1.991762
413.600 1.993700
413.700 1.994185
413.800 2.000727
413.900 2.002908
414.000 2.002423
414.100 1.998546
