# Wavelength (nm)   F_lamA (normalized erg/cm2/s/A)9.100 0.000038
9.400 0.000067
9.600 0.000096
9.800 0.000135
10.000 0.000186
10.200 0.000254
10.400 0.000341
10.600 0.000453
10.800 0.000596
11.000 0.000775
11.400 0.001271
11.800 0.002010
12.100 0.002777
12.500 0.004163
12.700 0.005044
12.800 0.005540
13.100 0.007273
13.200 0.007940
13.400 0.009426
13.700 0.012068
14.000 0.015281
14.300 0.019151
14.700 0.025482
15.100 0.033394
15.500 0.043092
15.900 0.054900
16.200 0.065261
16.600 0.081386
17.000 0.100341
17.300 0.116627
17.700 0.141325
18.000 0.162229
18.200 0.177369
18.600 0.210643
19.100 0.258434
19.400 0.290361
19.800 0.337349
20.200 0.389157
20.500 0.431526
21.000 0.508635
21.600 0.612450
22.000 0.688755
22.300 0.749598
22.700 0.835743
23.000 20.642570
23.400 23.132530
24.000 29.738956
24.600 40.180723
25.200 50.582329
25.700 40.281124
26.000 56.164659
26.400 70.763052
26.900 72.911647
27.400 74.417671
27.900 69.779116
28.400 76.626506
29.000 76.566265
29.600 69.297189
30.100 45.421687
30.800 56.004016
31.800 71.767068
32.800 71.987952
33.800 69.979920
34.800 68.192771
35.700 70.341365
36.600 73.313253
37.500 71.907631
38.500 66.606426
39.500 70.000000
40.500 71.084337
41.400 70.200803
42.200 68.052209
43.000 66.445783
44.100 67.530120
45.100 66.626506
46.000 64.277108
47.000 63.132530
48.000 62.971888
49.000 60.421687
50.000 60.963855
50.600 64.417671
51.200 78.172691
52.000 76.164659
53.000 74.176707
54.000 69.257028
55.000 67.891566
56.000 71.626506
57.000 70.863454
58.000 68.493976
59.000 68.192771
60.000 65.642570
61.000 63.493976
62.000 65.220884
63.000 63.514056
64.000 63.172691
65.000 61.506024
65.800 59.638554
66.500 60.140562
67.500 59.658635
68.500 56.987952
69.500 57.449799
70.500 54.618474
71.600 55.602410
72.600 54.819277
73.500 54.056225
74.500 52.730924
75.500 51.646586
76.500 50.040161
77.500 49.779116
78.500 48.755020
79.500 48.092369
80.500 47.469880
81.500 46.807229
82.500 46.164659
83.500 43.714859
84.500 44.497992
85.500 43.594378
86.500 43.192771
87.500 42.530120
88.500 41.767068
89.500 41.044177
90.500 40.040161
91.500 40.582329
92.500 64.076305
93.500 82.751004
94.500 104.759036
95.500 110.642570
96.500 122.389558
97.500 87.088353
98.500 116.927711
99.500 108.915663
100.500 112.771084
101.500 109.497992
102.500 81.847390
103.500 103.152610
104.500 106.586345
105.500 104.096386
106.500 99.016064
107.500 98.192771
108.500 91.485944
109.500 94.859438
110.500 91.686747
111.500 89.698795
112.500 85.682731
113.500 86.184739
114.500 83.634538
115.500 81.686747
116.500 79.959839
117.500 72.028112
118.500 75.722892
119.500 73.413655
120.500 70.000000
121.500 53.895582
122.500 67.449799
123.500 67.811245
124.500 66.506024
125.500 65.722892
126.500 64.377510
127.500 63.393574
128.500 62.148594
129.500 59.959839
130.500 58.895582
131.500 58.373494
132.500 56.827309
133.500 55.401606
134.500 54.779116
135.500 53.594378
136.500 52.208835
137.500 51.004016
138.500 50.200803
139.500 46.606426
140.500 44.718876
141.500 47.269076
142.500 45.963855
143.500 45.441767
144.200 44.779116
144.700 44.317269
145.500 43.514056
146.500 42.690763
147.500 41.907631
148.500 41.244980
149.500 40.361446
150.500 39.538153
151.200 38.935743
151.700 38.574297
152.500 37.951807
153.500 36.526104
154.500 34.698795
155.500 34.277108
156.500 34.558233
157.500 34.297189
158.500 33.795181
159.500 33.232932
160.500 32.148594
161.500 31.526104
162.500 31.004016
163.500 30.321285
164.500 29.056225
165.500 29.718876
166.500 29.277108
167.200 28.594378
167.700 28.895582
168.500 28.433735
169.500 27.891566
170.500 27.309237
171.500 26.566265
172.500 26.204819
173.500 26.064257
174.500 25.542169
175.500 25.120482
176.500 24.638554
177.500 24.297189
178.500 23.955823
179.500 23.554217
180.500 23.212851
181.500 22.751004
182.500 22.389558
183.500 22.048193
184.500 21.506024
185.500 21.104418
186.500 20.843373
187.500 20.602410
188.500 20.080321
189.500 19.678715
190.500 19.566265
191.500 19.140562
192.500 18.726908
193.500 18.622490
194.500 18.419679
195.500 17.931727
196.700 17.777108
197.600 17.614458
198.400 17.295181
199.500 16.923695
200.500 16.773092
201.500 16.554217
202.500 16.349398
203.500 16.026104
204.500 15.785141
205.500 13.363454
206.500 13.969880
207.400 15.204819
207.800 15.116466
208.500 15.008032
209.500 14.773092
210.500 14.608434
211.500 14.475904
212.500 14.281124
213.500 14.050201
214.500 13.815261
215.500 13.732932
216.500 13.405622
217.500 13.325301
218.500 13.032129
219.500 12.975904
220.500 12.777108
221.500 12.469880
222.500 12.395582
223.500 12.238956
224.500 12.066265
225.500 11.757028
226.500 11.726908
227.500 11.572289
228.500 11.409639
229.500 11.154618
230.500 10.959839
231.500 10.931727
232.500 10.566265
233.500 10.622490
234.500 10.463855
235.500 10.349398
236.500 10.190763
237.500 10.064257
238.500 9.763052
239.500 9.783133
240.500 9.654618
241.500 9.528112
242.500 9.423695
243.500 9.285141
244.500 9.174699
245.500 9.054217
246.500 8.933735
247.500 8.817269
248.500 8.708835
249.500 8.383534
250.500 8.477912
251.300 8.076305
251.800 8.319277
252.500 8.255020
253.500 8.150602
254.500 8.042169
255.500 7.961847
256.500 7.857430
257.500 7.771084
258.500 7.674699
259.500 7.574297
260.500 7.479920
261.500 7.383534
262.500 7.301205
263.500 7.214859
264.500 7.154618
265.500 7.066265
266.500 6.967871
267.500 6.887550
268.500 6.821285
269.500 6.714859
270.500 6.654618
271.500 6.568273
272.500 6.469880
273.500 6.317269
274.500 6.319277
275.500 6.248996
276.500 6.166667
277.500 6.126506
278.500 6.050201
279.500 5.933735
280.500 5.887550
281.500 5.851406
282.500 5.765060
283.500 5.700803
284.500 5.648594
285.500 5.582329
286.500 5.526104
287.500 5.461847
288.500 5.403614
289.500 5.341365
291.000 5.259036
293.000 5.140562
295.000 5.012048
297.000 4.919679
299.000 4.813253
301.000 4.694779
303.000 4.578313
305.000 4.465863
307.000 4.357430
309.000 4.253012
311.000 4.150602
313.000 4.048193
315.000 3.955823
317.000 3.863454
319.000 3.755020
321.000 3.656627
323.000 3.598394
325.000 3.520080
327.000 3.441767
329.000 3.365462
331.000 3.293173
332.200 3.275100
332.300 3.287149
332.400 3.271084
332.500 3.259036
332.600 3.240964
332.700 3.228916
332.800 3.214859
332.900 3.212851
333.000 3.208835
333.100 3.206827
333.200 3.198795
333.300 3.176707
333.400 3.160643
333.500 3.144578
333.600 3.126506
333.700 3.124498
333.800 3.120482
333.900 3.112450
334.000 3.090361
334.100 3.096386
334.200 3.112450
334.300 3.172691
334.400 3.210843
334.500 3.238956
334.600 3.259036
334.700 3.265060
334.800 3.224900
334.900 3.158635
335.000 3.042169
335.100 3.024096
335.200 3.046185
335.300 3.054217
335.400 3.048193
335.500 3.034137
335.600 3.038153
335.700 3.048193
335.800 3.060241
335.900 3.066265
336.000 3.062249
336.100 3.056225
336.200 3.062249
336.300 3.058233
336.400 3.056225
336.500 3.028112
336.600 3.000000
336.700 2.977912
336.800 2.969880
336.900 2.977912
337.000 2.997992
337.100 2.995984
337.200 2.965863
337.300 2.959839
337.400 2.975904
337.500 3.002008
337.600 3.014056
337.700 2.989960
337.800 2.985944
337.900 2.991968
338.000 3.020080
338.100 3.048193
338.200 3.048193
338.300 3.038153
338.400 3.024096
338.500 3.044177
338.600 3.074297
338.700 3.090361
338.800 3.084337
338.900 3.056225
339.000 3.048193
339.100 3.046185
339.200 3.066265
339.300 3.082329
339.400 3.118474
339.500 3.116466
339.600 3.090361
339.700 3.058233
339.800 3.028112
339.900 2.961847
340.000 2.919679
340.100 2.919679
340.200 2.905622
340.300 2.895582
340.400 2.907631
340.500 2.919679
340.600 2.915663
340.700 2.919679
340.800 2.927711
340.900 2.933735
341.000 2.935743
341.100 2.903614
341.200 2.903614
341.300 2.927711
341.400 2.953815
341.500 2.969880
341.600 2.963855
341.700 2.961847
341.800 2.965863
341.900 2.971888
342.000 2.967871
342.100 2.969880
342.200 2.963855
342.300 2.973896
342.400 2.973896
342.500 2.963855
342.600 2.963855
342.700 2.965863
342.800 2.985944
342.900 2.991968
343.000 2.971888
343.100 2.961847
343.200 2.947791
343.300 2.945783
343.400 2.949799
343.500 2.967871
343.600 2.975904
343.700 2.967871
343.800 2.945783
343.900 2.923695
344.000 2.883534
344.100 2.869478
344.200 2.871486
344.300 2.895582
344.400 2.911647
344.500 2.887550
344.600 2.873494
344.700 2.867470
344.800 2.887550
344.900 2.909639
345.000 2.853414
345.100 2.809237
345.200 2.791165
345.300 2.793173
345.400 2.805221
345.500 2.805221
345.600 2.805221
345.700 2.801205
345.800 2.793173
345.900 2.783133
346.000 2.775100
346.100 2.775100
346.200 2.795181
346.300 2.879518
346.400 2.839357
346.500 2.827309
346.600 2.837349
346.700 2.833333
346.800 2.823293
346.900 2.829317
347.000 2.833333
347.100 2.793173
347.200 2.785141
347.300 2.817269
347.400 2.813253
347.500 2.799197
347.600 2.773092
347.700 2.720884
347.800 2.674699
347.900 2.664659
348.000 2.692771
348.100 2.730924
348.200 2.718876
348.300 2.688755
348.400 2.698795
348.500 2.753012
348.600 2.769076
348.700 2.781124
348.800 2.813253
348.900 2.823293
349.000 2.805221
349.100 2.799197
349.200 2.821285
349.300 2.815261
349.400 2.807229
349.500 2.791165
349.600 2.757028
349.700 2.759036
349.800 2.779116
349.900 2.791165
350.000 2.761044
350.100 2.704819
350.200 2.706827
350.300 2.720884
350.400 2.702811
350.500 2.672691
350.600 2.662651
350.700 2.672691
350.800 2.686747
350.900 2.686747
351.000 2.682731
351.100 2.682731
351.200 2.674699
351.300 2.660643
351.400 2.670683
351.500 2.676707
351.600 2.692771
351.700 2.678715
351.800 2.678715
351.900 2.688755
352.000 2.690763
352.100 2.688755
352.200 2.680723
352.300 2.676707
352.400 2.698795
352.500 2.666667
352.600 2.660643
352.700 2.664659
352.800 2.676707
352.900 2.692771
353.000 2.696787
353.100 2.704819
353.200 2.718876
353.300 2.702811
353.400 2.672691
353.500 2.666667
353.600 2.672691
353.700 2.650602
353.800 2.648594
353.900 2.652610
354.000 2.674699
354.100 2.688755
354.200 2.684739
354.300 2.672691
354.400 2.676707
354.500 2.680723
354.600 2.664659
354.700 2.670683
354.800 2.684739
354.900 2.688755
355.000 2.668675
355.100 2.654618
355.200 2.658635
355.300 2.670683
355.400 2.674699
355.500 2.660643
355.600 2.644578
355.700 2.652610
355.800 2.660643
355.900 2.658635
356.000 2.650602
356.100 2.660643
356.200 2.674699
356.300 2.664659
356.400 2.650602
356.500 2.656627
356.600 2.664659
356.700 2.638554
356.800 2.642570
356.900 2.630522
357.000 2.596386
357.100 2.538153
357.200 2.524096
357.300 2.530120
357.400 2.522088
357.500 2.522088
357.600 2.532129
357.700 2.532129
357.800 2.528112
357.900 2.518072
358.000 2.526104
358.100 2.538153
358.200 2.534137
358.300 2.530120
358.400 2.524096
358.500 2.514056
358.600 2.506024
358.700 2.495984
358.800 2.487952
358.900 2.485944
359.000 2.508032
359.100 2.520080
359.200 2.510040
359.300 2.510040
359.400 2.512048
359.500 2.506024
359.600 2.497992
359.700 2.500000
359.800 2.502008
359.900 2.510040
360.000 2.532129
360.100 2.528112
360.200 2.534137
360.300 2.520080
360.400 2.506024
360.500 2.506024
360.600 2.508032
360.700 2.510040
360.800 2.520080
360.900 2.530120
361.000 2.524096
361.100 2.491968
361.200 2.489960
361.300 2.481928
361.400 2.467871
361.500 2.469880
361.600 2.491968
361.700 2.508032
361.800 2.520080
361.900 2.522088
362.000 2.500000
362.100 2.493976
362.200 2.518072
362.300 2.518072
362.400 2.506024
362.500 2.506024
362.600 2.520080
362.700 2.528112
362.800 2.514056
362.900 2.502008
363.000 2.512048
363.100 2.520080
363.200 2.506024
363.300 2.491968
363.400 2.508032
363.500 2.506024
363.600 2.455823
363.700 2.433735
363.800 2.437751
363.900 2.439759
364.000 2.447791
364.100 2.461847
364.200 2.465863
364.300 2.443775
364.400 2.415663
364.500 2.413655
364.600 2.421687
364.700 2.427711
364.800 2.433735
364.900 2.441767
365.000 2.439759
365.100 2.425703
365.200 2.421687
365.300 2.417671
365.400 2.411647
365.500 2.417671
365.600 2.419679
365.700 2.411647
365.800 2.409639
365.900 2.403614
366.000 2.393574
366.100 2.385542
366.200 2.381526
366.300 2.393574
366.400 2.399598
366.500 2.391566
366.600 2.385542
366.700 2.373494
366.800 2.369478
366.900 2.375502
367.000 2.379518
367.100 2.375502
367.200 2.369478
367.300 2.365462
367.400 2.363454
367.500 2.359438
367.600 2.369478
367.700 2.351406
367.800 2.341365
367.900 2.343373
368.000 2.349398
368.100 2.361446
368.200 2.363454
368.300 2.355422
368.400 2.343373
368.500 2.335341
368.600 2.325301
368.700 2.329317
368.800 2.349398
368.900 2.377510
369.000 2.373494
369.100 2.341365
369.200 2.349398
369.300 2.369478
369.400 2.371486
369.500 2.361446
369.600 2.327309
369.700 2.305221
369.800 2.309237
369.900 2.359438
370.000 2.413655
370.100 2.405622
370.200 2.343373
370.300 2.248996
370.400 2.208835
370.500 2.206827
370.600 2.271084
370.700 2.339357
370.800 2.381526
370.900 2.357430
371.000 2.287149
371.100 2.214859
371.200 2.172691
371.300 2.196787
371.400 2.273092
371.500 2.385542
371.600 2.433735
371.700 2.451807
371.800 2.441767
371.900 2.359438
372.000 2.216867
372.100 2.146586
372.200 2.112450
372.300 2.160643
372.400 2.240964
372.500 2.335341
372.600 2.377510
372.700 2.427711
372.800 2.451807
372.900 2.459839
373.000 2.445783
373.100 2.381526
373.200 2.263052
373.300 2.150602
373.400 2.054217
373.500 2.044177
373.600 2.104418
373.700 2.234940
373.800 2.331325
373.900 2.443775
374.000 2.495984
374.100 2.524096
374.200 2.518072
374.300 2.489960
374.400 2.471888
374.500 2.443775
374.600 2.373494
374.700 2.265060
374.800 2.148594
374.900 2.000402
375.000 1.969076
375.100 2.014056
375.200 2.122490
375.300 2.214859
375.400 2.319277
375.500 2.379518
375.600 2.427711
375.700 2.425703
375.800 2.407631
375.900 2.389558
376.000 2.373494
376.100 2.359438
376.200 2.411647
376.300 2.439759
376.400 2.423695
376.500 2.385542
376.600 2.317269
376.700 2.240964
376.800 2.128514
376.900 2.000000
377.000 1.899197
377.100 1.874498
377.200 1.963253
377.300 2.106426
377.400 2.214859
377.500 2.301205
377.600 2.357430
377.700 2.391566
377.800 2.425703
377.900 2.439759
378.000 2.453815
378.100 2.465863
378.200 2.471888
378.300 2.457831
378.400 2.449799
378.500 2.463855
378.600 2.465863
378.700 2.447791
378.800 2.433735
378.900 2.421687
379.000 2.399598
379.100 2.377510
379.200 2.351406
379.300 2.307229
379.400 2.230924
379.500 2.106426
379.600 1.968474
379.700 1.832932
379.800 1.780522
379.900 1.841968
380.000 2.008032
380.100 2.140562
380.200 2.246988
380.300 2.305221
380.400 2.345382
380.500 2.379518
380.600 2.371486
380.700 2.383534
380.800 2.405622
380.900 2.429719
381.000 2.451807
381.100 2.459839
381.200 2.439759
381.300 2.417671
381.400 2.403614
381.500 2.397590
381.600 2.391566
381.700 2.385542
381.800 2.357430
381.900 2.321285
382.000 2.301205
382.100 2.303213
382.200 2.355422
382.300 2.379518
382.400 2.371486
382.500 2.351406
382.600 2.325301
382.700 2.327309
382.800 2.321285
382.900 2.281124
383.000 2.232932
383.100 2.162651
383.200 2.066265
383.300 1.935743
383.400 1.766064
383.500 1.688554
383.600 1.695984
383.700 1.814257
383.800 1.951205
383.900 2.086345
384.000 2.162651
384.100 2.230924
384.200 2.275100
384.300 2.323293
384.400 2.365462
384.500 2.395582
384.600 2.389558
384.700 2.385542
384.800 2.379518
384.900 2.383534
385.000 2.381526
385.100 2.395582
385.200 2.407631
385.300 2.401606
385.400 2.381526
385.500 2.361446
385.600 2.343373
385.700 2.339357
385.800 2.355422
385.900 2.383534
386.000 2.395582
386.100 2.401606
386.200 2.377510
386.300 2.333333
386.400 2.327309
386.500 2.325301
386.600 2.323293
386.700 2.335341
386.800 2.349398
386.900 2.347390
387.000 2.333333
387.100 2.309237
387.200 2.291165
387.300 2.293173
387.400 2.309237
387.500 2.325301
387.600 2.319277
387.700 2.301205
387.800 2.291165
387.900 2.293173
388.000 2.301205
388.100 2.281124
388.200 2.240964
388.300 2.202811
388.400 2.160643
388.500 2.078313
388.600 1.958835
388.700 1.785341
388.800 1.640361
388.900 1.580120
389.000 1.665863
389.100 1.830924
389.200 2.002610
389.300 2.106426
389.400 2.176707
389.500 2.216867
389.600 2.246988
389.700 2.273092
389.800 2.283133
389.900 2.285141
390.000 2.291165
390.100 2.309237
390.200 2.327309
390.300 2.337349
390.400 2.341365
390.500 2.337349
390.600 2.323293
390.700 2.331325
390.800 2.361446
390.900 2.375502
391.000 2.365462
391.100 2.363454
391.200 2.359438
391.300 2.335341
391.400 2.327309
391.500 2.341365
391.600 2.349398
391.700 2.347390
391.800 2.337349
391.900 2.309237
392.000 2.299197
392.100 2.297189
392.200 2.283133
392.300 2.259036
392.400 2.255020
392.500 2.265060
392.600 2.261044
392.700 2.265060
392.800 2.265060
392.900 2.263052
393.000 2.246988
393.100 2.186747
393.200 2.018072
393.300 1.773293
393.400 1.795582
393.500 2.010040
393.600 2.162651
393.700 2.226908
393.800 2.257028
393.900 2.273092
394.000 2.293173
394.100 2.305221
394.200 2.305221
394.300 2.285141
394.400 2.277108
394.500 2.255020
394.600 2.244980
394.700 2.251004
394.800 2.255020
394.900 2.253012
395.000 2.248996
395.100 2.240964
395.200 2.234940
395.300 2.232932
395.400 2.228916
395.500 2.218876
395.600 2.204819
395.700 2.190763
395.800 2.186747
395.900 2.190763
396.000 2.184739
396.100 2.170683
396.200 2.136546
396.300 2.090361
396.400 2.032129
396.500 1.966265
396.600 1.862048
396.700 1.629116
396.800 1.384538
396.900 1.290161
397.000 1.337349
397.100 1.469076
397.200 1.649598
397.300 1.792169
397.400 1.906827
397.500 1.988353
397.600 2.048193
397.700 2.082329
397.800 2.096386
397.900 2.126506
398.000 2.138554
398.100 2.146586
398.200 2.146586
398.300 2.142570
398.400 2.152610
398.500 2.166667
398.600 2.138554
398.700 2.088353
398.800 2.152610
398.900 2.172691
399.000 2.188755
399.100 2.198795
399.200 2.202811
399.300 2.198795
399.400 2.182731
399.500 2.176707
399.600 2.166667
399.700 2.166667
399.800 2.172691
399.900 2.182731
400.000 2.166667
400.100 2.154618
400.200 2.154618
400.300 2.150602
400.400 2.150602
400.500 2.150602
400.600 2.150602
400.700 2.148594
400.800 2.148594
400.900 2.138554
401.000 2.132530
401.100 2.146586
401.200 2.152610
401.300 2.158635
401.400 2.166667
401.500 2.168675
401.600 2.172691
401.700 2.180723
401.800 2.190763
401.900 2.196787
402.000 2.192771
402.100 2.178715
402.200 2.166667
402.300 2.130522
402.400 2.070281
402.500 2.010040
402.600 1.996386
402.700 2.032129
402.800 2.094378
402.900 2.130522
403.000 2.160643
403.100 2.164659
403.200 2.166667
403.300 2.164659
403.400 2.164659
403.500 2.168675
403.600 2.170683
403.700 2.172691
403.800 2.174699
403.900 2.168675
404.000 2.170683
404.100 2.178715
404.200 2.172691
404.300 2.162651
404.400 2.154618
404.500 2.142570
404.600 2.138554
404.700 2.154618
404.800 2.168675
404.900 2.170683
405.000 2.164659
405.100 2.162651
405.200 2.168675
405.300 2.158635
405.400 2.156627
405.500 2.164659
405.600 2.166667
405.700 2.168675
405.800 2.174699
405.900 2.176707
406.000 2.170683
406.100 2.146586
406.200 2.134538
406.300 2.134538
406.400 2.094378
406.500 2.001406
406.600 2.030120
406.700 2.070281
406.800 2.072289
406.900 2.062249
407.000 2.048193
407.100 2.040161
407.200 2.046185
407.300 2.042169
407.400 2.048193
407.500 2.044177
407.600 2.028112
407.700 2.016064
407.800 2.020080
407.900 2.044177
408.000 2.062249
408.100 2.066265
408.200 2.062249
408.300 2.058233
408.400 2.040161
408.500 2.032129
408.600 2.026104
408.700 2.036145
408.800 2.044177
408.900 2.042169
409.000 2.026104
409.100 2.016064
409.200 2.012048
409.300 1.990964
409.400 1.963655
409.500 1.921084
409.600 1.875100
409.700 1.825100
409.800 1.731928
409.900 1.618876
410.000 1.482129
410.100 1.360643
410.200 1.337349
410.300 1.433936
410.400 1.592972
410.500 1.746185
410.600 1.829317
410.700 1.875301
410.800 1.912450
410.900 1.927309
411.000 1.942570
411.100 1.958434
411.200 1.974096
411.300 1.987751
411.400 2.006225
411.500 2.024096
411.600 2.034137
411.700 2.022088
411.800 1.996386
411.900 1.979317
412.000 1.973293
412.100 1.978313
412.200 1.980924
412.300 1.991365
412.400 2.004618
412.500 2.016064
412.600 2.014056
412.700 1.992570
412.800 1.968876
412.900 1.964659
413.000 1.971486
413.100 1.979317
413.200 1.983534
413.300 1.989960
413.400 2.005823
413.500 2.018072
413.600 2.020080
413.700 2.020080
413.800 2.026104
413.900 2.028112
414.000 2.026104
414.100 2.022088
