# Wavelength (nm)   F_lamA (normalized erg/cm2/s/A)9.100 0.000845
9.400 0.000957
9.600 0.001035
9.800 0.001116
10.000 0.001199
10.200 0.001284
10.400 0.001373
10.600 0.001464
10.800 0.001558
11.000 0.001656
11.400 0.001861
11.800 0.002084
12.100 0.002263
12.500 0.002523
12.700 0.002664
12.800 0.002738
13.100 0.002969
13.200 0.003053
13.400 0.003224
13.700 0.003503
14.000 0.003810
14.300 0.004152
14.700 0.004662
15.100 0.005251
15.500 0.005927
15.900 0.006706
16.200 0.007362
16.600 0.008347
17.000 0.009474
17.300 0.010415
17.700 0.011813
18.000 0.012980
18.200 0.013813
18.600 0.015628
19.100 0.018190
19.400 0.019891
19.800 0.022361
20.200 0.025069
20.500 0.027273
21.000 0.031235
21.600 0.036554
22.000 0.040434
22.300 0.043528
22.700 0.047897
23.000 1.048847
23.400 1.170963
24.000 1.497151
24.600 2.013297
25.200 2.526730
25.700 2.013840
26.000 2.803256
26.400 3.530529
26.900 3.639077
27.400 3.712347
27.900 3.478969
28.400 3.820896
29.000 3.818182
29.600 3.454545
30.100 2.262144
30.800 2.789688
31.800 3.579376
32.800 3.587517
33.800 3.489824
34.800 3.402985
35.700 3.508820
36.600 3.658073
37.500 3.587517
38.500 3.324288
39.500 3.492537
40.500 3.549525
41.400 3.506106
42.200 3.400271
43.000 3.321574
44.100 3.375848
45.100 3.335142
46.000 3.218453
47.000 3.164179
48.000 3.161465
49.000 3.033921
50.000 3.066486
50.600 3.329715
51.200 4.184532
52.000 4.073270
53.000 3.964722
54.000 3.696065
55.000 3.644505
56.000 3.861601
57.000 3.829037
58.000 3.693351
59.000 3.690638
60.000 3.552239
61.000 3.454545
62.000 3.560380
63.000 3.473541
64.000 3.459973
65.000 3.375848
65.800 3.278155
66.500 3.310719
67.500 3.291723
68.500 3.145183
69.500 3.185889
70.500 3.028494
71.600 3.099050
72.600 3.061058
73.500 3.028494
74.500 2.957938
75.500 2.906377
76.500 2.822252
77.500 2.814111
78.500 2.767978
79.500 2.735414
80.500 2.703935
81.500 2.673813
82.500 2.645047
83.500 2.500136
84.500 2.562551
85.500 2.518046
86.500 2.502035
87.500 2.469742
88.500 2.433650
89.500 2.398372
90.500 2.346540
91.500 2.422795
92.500 4.610583
93.500 6.548168
94.500 9.462687
95.500 10.876526
96.500 12.624152
97.500 7.373134
98.500 13.329715
99.500 13.118046
100.500 13.677069
101.500 12.157395
102.500 7.066486
103.500 11.017639
104.500 13.424695
105.500 13.617368
106.500 12.876526
107.500 13.267300
108.500 12.352782
109.500 12.990502
110.500 12.537313
111.500 12.333786
112.500 11.704206
113.500 11.951153
114.500 11.427408
115.500 11.305292
116.500 11.139756
117.500 9.785617
118.500 10.230665
119.500 9.191316
120.500 7.943012
121.500 4.833107
122.500 7.628223
123.500 8.805970
124.500 9.137042
125.500 9.232022
126.500 8.979647
127.500 9.245590
128.500 9.237449
129.500 8.838535
130.500 8.672999
131.500 8.873813
132.500 8.654003
133.500 8.398915
134.500 8.491180
135.500 8.325645
136.500 8.097693
137.500 7.994573
138.500 7.932157
139.500 7.497965
140.500 7.364993
141.500 7.533243
142.500 7.389417
143.500 7.289009
144.200 7.272727
144.700 7.218453
145.500 7.109905
146.500 6.955224
147.500 6.854817
148.500 6.759837
149.500 6.645862
150.500 6.529172
151.200 6.407056
151.700 6.401628
152.500 6.276798
153.500 6.035278
154.500 5.948440
155.500 5.801900
156.500 5.758480
157.500 5.774763
158.500 5.747626
159.500 5.712347
160.500 5.508820
161.500 5.432836
162.500 5.316147
163.500 5.267300
164.500 5.142469
165.500 5.077341
166.500 5.142469
167.200 4.957938
167.700 5.044776
168.500 5.020353
169.500 4.909091
170.500 4.805970
171.500 4.716418
172.500 4.645862
173.500 4.667571
174.500 4.567164
175.500 4.553596
176.500 4.385346
177.500 4.417910
178.500 4.358209
179.500 4.339213
180.500 4.293080
181.500 4.208955
182.500 4.157395
183.500 4.097693
184.500 3.975577
185.500 3.913161
186.500 3.886024
187.500 3.886024
188.500 3.780190
189.500 3.704206
190.500 3.720488
191.500 3.633650
192.500 3.579376
193.500 3.560380
194.500 3.571235
195.500 3.470828
196.700 3.481682
197.600 3.457259
198.400 3.394844
199.500 3.316147
200.500 3.302578
201.500 3.261872
202.500 3.242877
203.500 3.196744
204.500 3.169607
205.500 2.936228
206.500 2.976934
207.400 3.090909
207.800 3.055631
208.500 3.047490
209.500 2.987788
210.500 2.974220
211.500 2.952510
212.500 2.928087
213.500 2.865672
214.500 2.852103
215.500 2.830393
216.500 2.767978
217.500 2.746269
218.500 2.716418
219.500 2.727273
220.500 2.672185
221.500 2.613297
222.500 2.583718
223.500 2.604342
224.500 2.554681
225.500 2.498779
226.500 2.480597
227.500 2.479783
228.500 2.466486
229.500 2.404071
230.500 2.392944
231.500 2.370692
232.500 2.209227
233.500 2.305563
234.500 2.235278
235.500 2.267843
236.500 2.200543
237.500 2.208955
238.500 2.123474
239.500 2.153324
240.500 2.120760
241.500 2.107734
242.500 2.120217
243.500 2.079240
244.500 2.080326
245.500 2.060787
246.500 2.029851
247.500 2.001085
248.500 1.996201
249.500 1.938670
250.500 1.984532
251.300 1.913704
251.800 1.926187
252.500 1.891180
253.500 1.871099
254.500 1.859430
255.500 1.877612
256.500 1.854545
257.500 1.862415
258.500 1.848847
259.500 1.826594
260.500 1.796201
261.500 1.772863
262.500 1.775848
263.500 1.772049
264.500 1.808141
265.500 1.797286
266.500 1.756038
267.500 1.757938
268.500 1.753053
269.500 1.714518
270.500 1.710448
271.500 1.676526
272.500 1.659430
273.500 1.662144
274.500 1.598643
275.500 1.599457
276.500 1.609769
277.500 1.623066
278.500 1.596744
279.500 1.471913
280.500 1.501764
281.500 1.586160
282.500 1.574220
283.500 1.553596
284.500 1.535414
285.500 1.505292
286.500 1.524830
287.500 1.512619
288.500 1.507463
289.500 1.496608
291.000 1.503121
293.000 1.471370
295.000 1.445590
297.000 1.434464
299.000 1.417639
301.000 1.403528
303.000 1.385346
305.000 1.368521
307.000 1.348168
309.000 1.332157
311.000 1.312890
313.000 1.293894
315.000 1.278969
317.000 1.266486
319.000 1.234193
321.000 1.230393
323.000 1.208955
325.000 1.206784
327.000 1.202442
329.000 1.189417
331.000 1.178019
332.200 1.132700
332.300 1.129172
332.400 1.123474
332.500 1.118860
332.600 1.110719
332.700 1.100678
332.800 1.108277
332.900 1.115061
333.000 1.123202
333.100 1.131072
333.200 1.129444
333.300 1.122931
333.400 1.109905
333.500 1.102307
333.600 1.090909
333.700 1.079512
333.800 1.081954
333.900 1.084939
334.000 1.084668
334.100 1.088467
334.200 1.088738
334.300 1.108820
334.400 1.126730
334.500 1.130801
334.600 1.128901
334.700 1.116147
334.800 1.094708
334.900 1.071370
335.000 1.055631
335.100 1.057802
335.200 1.065400
335.300 1.072185
335.400 1.075712
335.500 1.081954
335.600 1.085753
335.700 1.085753
335.800 1.071913
335.900 1.054274
336.000 1.042334
336.100 1.039349
336.200 1.053460
336.300 1.064586
336.400 1.071642
336.500 1.059973
336.600 1.048033
336.700 1.041791
336.800 1.040163
336.900 1.045047
337.000 1.042877
337.100 1.033650
337.200 1.017910
337.300 1.019539
337.400 1.034464
337.500 1.059973
337.600 1.077069
337.700 1.066214
337.800 1.051018
337.900 1.041248
338.000 1.046947
338.100 1.059430
338.200 1.068928
338.300 1.078697
338.400 1.080597
338.500 1.084668
338.600 1.081682
338.700 1.067843
338.800 1.058887
338.900 1.070556
339.000 1.084939
339.100 1.096336
339.200 1.090909
339.300 1.076798
339.400 1.084125
339.500 1.094437
339.600 1.106106
339.700 1.106649
339.800 1.103121
339.900 1.085210
340.000 1.067571
340.100 1.064043
340.200 1.052103
340.300 1.049661
340.400 1.048304
340.500 1.052917
340.600 1.047218
340.700 1.042334
340.800 1.043419
340.900 1.049118
341.000 1.058345
341.100 1.048847
341.200 1.048033
341.300 1.055631
341.400 1.065943
341.500 1.072456
341.600 1.071913
341.700 1.070828
341.800 1.075984
341.900 1.081411
342.000 1.083853
342.100 1.083039
342.200 1.073813
342.300 1.065943
342.400 1.062687
342.500 1.063229
342.600 1.066757
342.700 1.072727
342.800 1.082768
342.900 1.091723
343.000 1.087924
343.100 1.078969
343.200 1.069742
343.300 1.066486
343.400 1.072999
343.500 1.083039
343.600 1.086024
343.700 1.081140
343.800 1.074355
343.900 1.065943
344.000 1.054545
344.100 1.041791
344.200 1.035821
344.300 1.035821
344.400 1.038535
344.500 1.043691
344.600 1.055902
344.700 1.070556
344.800 1.086296
344.900 1.097422
345.000 1.072999
345.100 1.041791
345.200 1.023338
345.300 1.017368
345.400 1.028494
345.500 1.030665
345.600 1.028494
345.700 1.030393
345.800 1.028494
345.900 1.028494
346.000 1.022524
346.100 1.017368
346.200 1.022795
346.300 1.036906
346.400 1.033650
346.500 1.029037
346.600 1.030936
346.700 1.039891
346.800 1.046676
346.900 1.053460
347.000 1.060516
347.100 1.055902
347.200 1.046404
347.300 1.030936
347.400 1.023609
347.500 1.017910
347.600 1.019539
347.700 1.024966
347.800 1.025780
347.900 1.025509
348.000 1.033379
348.100 1.035821
348.200 1.029308
348.300 1.022252
348.400 1.023066
348.500 1.039620
348.600 1.055088
348.700 1.059430
348.800 1.056445
348.900 1.045319
349.000 1.034193
349.100 1.037449
349.200 1.047761
349.300 1.048575
349.400 1.043419
349.500 1.033650
349.600 1.026594
349.700 1.029579
349.800 1.030936
349.900 1.030936
350.000 1.018996
350.100 1.011669
350.200 1.018182
350.300 1.020896
350.400 1.016825
350.500 1.007056
350.600 1.002442
350.700 1.003799
350.800 1.004342
350.900 1.006784
351.000 1.011398
351.100 1.014654
351.200 1.013569
351.300 1.006242
351.400 1.002985
351.500 1.010041
351.600 1.021710
351.700 1.029037
351.800 1.030393
351.900 1.023881
352.000 1.019810
352.100 1.015468
352.200 1.010583
352.300 1.009227
352.400 1.007598
352.500 1.004613
352.600 1.008684
352.700 1.013026
352.800 1.020353
352.900 1.029579
353.000 1.038263
353.100 1.045319
353.200 1.046676
353.300 1.035550
353.400 1.023066
353.500 1.016825
353.600 1.020353
353.700 1.025237
353.800 1.028223
353.900 1.032022
354.000 1.033650
354.100 1.031479
354.200 1.032564
354.300 1.039077
354.400 1.043148
354.500 1.041791
354.600 1.039349
354.700 1.037449
354.800 1.038263
354.900 1.037720
355.000 1.038806
355.100 1.044505
355.200 1.043962
355.300 1.035550
355.400 1.026866
355.500 1.026594
355.600 1.032836
355.700 1.043419
355.800 1.047218
355.900 1.043419
356.000 1.036906
356.100 1.036364
356.200 1.037178
356.300 1.031479
356.400 1.021710
356.500 1.013026
356.600 1.011669
356.700 1.011126
356.800 1.011398
356.900 1.007327
357.000 0.998100
357.100 0.981547
357.200 0.970421
357.300 0.968521
357.400 0.970692
357.500 0.976119
357.600 0.982361
357.700 0.984532
357.800 0.985889
357.900 0.983175
358.000 0.980461
358.100 0.977205
358.200 0.973406
358.300 0.973134
358.400 0.967978
358.500 0.959023
358.600 0.947083
358.700 0.940841
358.800 0.944912
358.900 0.959023
359.000 0.972049
359.100 0.975305
359.200 0.971235
359.300 0.970692
359.400 0.972863
359.500 0.980190
359.600 0.985617
359.700 0.987517
359.800 0.989417
359.900 0.992130
360.000 0.995115
360.100 0.989145
360.200 0.985889
360.300 0.982361
360.400 0.981818
360.500 0.982361
360.600 0.982361
360.700 0.979104
360.800 0.978019
360.900 0.981818
361.000 0.983718
361.100 0.983718
361.200 0.985346
361.300 0.984803
361.400 0.985617
361.500 0.992402
361.600 0.997286
361.700 0.998372
361.800 0.995929
361.900 0.991045
362.000 0.990773
362.100 0.993758
362.200 1.001900
362.300 1.007327
362.400 1.008141
362.500 1.015468
362.600 1.026323
362.700 1.035278
362.800 1.032293
362.900 1.019810
363.000 1.003799
363.100 0.994030
363.200 0.996744
363.300 1.008141
363.400 1.016282
363.500 1.013569
363.600 1.000271
363.700 0.995658
363.800 1.000000
363.900 1.004071
364.000 1.006513
364.100 1.004342
364.200 0.998372
364.300 0.990773
364.400 0.985617
364.500 0.986974
364.600 0.984532
364.700 0.982904
364.800 0.983718
364.900 0.982361
365.000 0.982904
365.100 0.983718
365.200 0.988602
365.300 0.993216
365.400 0.998915
365.500 1.003799
365.600 1.008955
365.700 1.010041
365.800 1.008412
365.900 1.007056
366.000 1.002442
366.100 0.995658
366.200 0.989959
366.300 0.989688
366.400 0.993216
366.500 0.996201
366.600 0.995929
366.700 0.991045
366.800 0.984803
366.900 0.982361
367.000 0.984803
367.100 0.988602
367.200 0.994301
367.300 0.995387
367.400 0.991316
367.500 0.983718
367.600 0.973406
367.700 0.964722
367.800 0.960923
367.900 0.963365
368.000 0.968521
368.100 0.975034
368.200 0.974491
368.300 0.971235
368.400 0.968521
368.500 0.962008
368.600 0.955767
368.700 0.958480
368.800 0.977205
368.900 0.999729
369.000 0.999186
369.100 0.981275
369.200 0.977476
369.300 0.989145
369.400 1.006513
369.500 1.011669
369.600 0.988874
369.700 0.970963
369.800 0.976934
369.900 1.012754
370.000 1.055360
370.100 1.059430
370.200 1.020896
370.300 0.953053
370.400 0.917775
370.500 0.917232
370.600 0.960651
370.700 1.009498
370.800 1.045862
370.900 1.032836
371.000 0.982090
371.100 0.932700
371.200 0.900678
371.300 0.919403
371.400 0.978290
371.500 1.065672
371.600 1.122388
371.700 1.153596
371.800 1.140841
371.900 1.079240
372.000 0.974220
372.100 0.902035
372.200 0.862958
372.300 0.892537
372.400 0.973406
372.500 1.070014
372.600 1.131072
372.700 1.184803
372.800 1.206784
372.900 1.210312
373.000 1.188331
373.100 1.128630
373.200 1.021981
373.300 0.928901
373.400 0.844505
373.500 0.825780
373.600 0.873270
373.700 0.975034
373.800 1.071099
373.900 1.183175
374.000 1.245862
374.100 1.289281
374.200 1.300678
374.300 1.290909
374.400 1.263229
374.500 1.221710
374.600 1.159023
374.700 1.077069
374.800 0.985617
374.900 0.882225
375.000 0.839077
375.100 0.842877
375.200 0.906649
375.300 1.018725
375.400 1.134328
375.500 1.205699
375.600 1.268114
375.700 1.293351
375.800 1.303392
375.900 1.304478
376.000 1.306649
376.100 1.313704
376.200 1.323745
376.300 1.316147
376.400 1.296879
376.500 1.255631
376.600 1.193487
376.700 1.123474
376.800 1.016282
376.900 0.913433
377.000 0.830665
377.100 0.803528
377.200 0.855902
377.300 0.961194
377.400 1.052646
377.500 1.145183
377.600 1.218725
377.700 1.282768
377.800 1.349254
377.900 1.394301
378.000 1.440434
378.100 1.465672
378.200 1.481954
378.300 1.488738
378.400 1.492809
378.500 1.491995
378.600 1.483853
378.700 1.461330
378.800 1.438806
378.900 1.416825
379.000 1.384532
379.100 1.349525
379.200 1.293351
379.300 1.228223
379.400 1.148711
379.500 1.036364
379.600 0.931072
379.700 0.824152
379.800 0.776662
379.900 0.806784
380.000 0.909091
380.100 1.017639
380.200 1.134871
380.300 1.208684
380.400 1.282497
380.500 1.335957
380.600 1.374491
380.700 1.417368
380.800 1.450475
380.900 1.489281
381.000 1.519132
381.100 1.537585
381.200 1.534871
381.300 1.524559
381.400 1.512076
381.500 1.513976
381.600 1.523474
381.700 1.530258
381.800 1.523474
381.900 1.495794
382.000 1.474084
382.100 1.465943
382.200 1.475170
382.300 1.473270
382.400 1.448575
382.500 1.416554
382.600 1.377476
382.700 1.345997
382.800 1.303935
382.900 1.251560
383.000 1.198915
383.100 1.122117
383.200 1.042605
383.300 0.934057
383.400 0.818996
383.500 0.759023
383.600 0.750339
383.700 0.806784
383.800 0.901764
383.900 1.001900
384.000 1.088467
384.100 1.184261
384.200 1.255631
384.300 1.331343
384.400 1.381818
384.500 1.425509
384.600 1.462958
384.700 1.491180
384.800 1.512890
384.900 1.524288
385.000 1.535142
385.100 1.554681
385.200 1.574763
385.300 1.589417
385.400 1.590502
385.500 1.584261
385.600 1.576391
385.700 1.573134
385.800 1.580461
385.900 1.593216
386.000 1.604342
386.100 1.611126
386.200 1.610041
386.300 1.592402
386.400 1.585346
386.500 1.581275
386.600 1.582361
386.700 1.588602
386.800 1.592402
386.900 1.591045
387.000 1.578290
387.100 1.560651
387.200 1.535414
387.300 1.523202
387.400 1.519674
387.500 1.517503
387.600 1.504749
387.700 1.472727
387.800 1.443148
387.900 1.414383
388.000 1.393758
388.100 1.367707
388.200 1.319674
388.300 1.268928
388.400 1.200271
388.500 1.119403
388.600 1.022524
388.700 0.896065
388.800 0.802442
388.900 0.753596
389.000 0.782904
389.100 0.874084
389.200 0.992673
389.300 1.080326
389.400 1.166079
389.500 1.226866
389.600 1.289824
389.700 1.341655
389.800 1.375848
389.900 1.406513
390.000 1.429308
390.100 1.459430
390.200 1.489281
390.300 1.513161
390.400 1.526459
390.500 1.534057
390.600 1.546811
390.700 1.567978
390.800 1.597829
390.900 1.626052
391.000 1.640163
391.100 1.646404
391.200 1.643419
391.300 1.630936
391.400 1.620624
391.500 1.624152
391.600 1.637449
391.700 1.642877
391.800 1.643148
391.900 1.636092
392.000 1.633107
392.100 1.633650
392.200 1.631750
392.300 1.632293
392.400 1.632293
392.500 1.634735
392.600 1.627408
392.700 1.617368
392.800 1.594844
392.900 1.570963
393.000 1.534057
393.100 1.465672
393.200 1.363094
393.300 1.249389
393.400 1.219539
393.500 1.289824
393.600 1.405699
393.700 1.502578
393.800 1.566350
393.900 1.597286
394.000 1.616011
394.100 1.627680
394.200 1.629308
394.300 1.621981
394.400 1.612212
394.500 1.600814
394.600 1.595387
394.700 1.593758
394.800 1.586160
394.900 1.576934
395.000 1.567978
395.100 1.558209
395.200 1.550068
395.300 1.546540
395.400 1.538942
395.500 1.519674
395.600 1.497422
395.700 1.474084
395.800 1.457531
395.900 1.435550
396.000 1.400271
396.100 1.360380
396.200 1.308005
396.300 1.262687
396.400 1.198643
396.500 1.115332
396.600 1.009769
396.700 0.859159
396.800 0.731343
396.900 0.644233
397.000 0.633107
397.100 0.696879
397.200 0.810855
397.300 0.919403
397.400 1.033107
397.500 1.115061
397.600 1.190231
397.700 1.253460
397.800 1.298236
397.900 1.348711
398.000 1.380190
398.100 1.411669
398.200 1.437178
398.300 1.458345
398.400 1.483311
398.500 1.503664
398.600 1.520217
398.700 1.530258
398.800 1.548711
398.900 1.559023
399.000 1.567978
399.100 1.577748
399.200 1.583175
399.300 1.590502
399.400 1.595929
399.500 1.601085
399.600 1.599729
399.700 1.597015
399.800 1.594573
399.900 1.601085
400.000 1.604342
400.100 1.604071
400.200 1.605156
400.300 1.598643
400.400 1.595115
400.500 1.591045
400.600 1.592130
400.700 1.598915
400.800 1.607327
400.900 1.610312
401.000 1.610855
401.100 1.612483
401.200 1.614654
401.300 1.617096
401.400 1.617368
401.500 1.623881
401.600 1.632836
401.700 1.640977
401.800 1.648304
401.900 1.651289
402.000 1.651018
402.100 1.647218
402.200 1.640706
402.300 1.625237
402.400 1.602714
402.500 1.585075
402.600 1.580461
402.700 1.595929
402.800 1.613297
402.900 1.623881
403.000 1.630393
403.100 1.630665
403.200 1.631750
403.300 1.633107
403.400 1.637720
403.500 1.647761
403.600 1.656716
403.700 1.663772
403.800 1.663501
403.900 1.657259
404.000 1.652374
404.100 1.649389
404.200 1.648575
404.300 1.645590
404.400 1.629037
404.500 1.611398
404.600 1.602714
404.700 1.614383
404.800 1.632022
404.900 1.642062
405.000 1.643419
405.100 1.644776
405.200 1.642334
405.300 1.633379
405.400 1.624423
405.500 1.624423
405.600 1.629851
405.700 1.634464
405.800 1.635278
405.900 1.639349
406.000 1.641791
406.100 1.631479
406.200 1.614383
406.300 1.596744
406.400 1.583446
406.500 1.563908
406.600 1.563908
406.700 1.567436
406.800 1.565536
406.900 1.563908
407.000 1.553867
407.100 1.535142
407.200 1.524830
407.300 1.526187
407.400 1.531072
407.500 1.529172
407.600 1.512619
407.700 1.497965
407.800 1.489824
407.900 1.495251
408.000 1.506377
408.100 1.509634
408.200 1.507191
408.300 1.497693
408.400 1.485210
408.500 1.471099
408.600 1.457259
408.700 1.449389
408.800 1.438263
408.900 1.426594
409.000 1.402442
409.100 1.381547
409.200 1.363365
409.300 1.329172
409.400 1.294708
409.500 1.236635
409.600 1.179647
409.700 1.120217
409.800 1.039891
409.900 0.952782
410.000 0.841248
410.100 0.757395
410.200 0.730529
410.300 0.780461
410.400 0.874355
410.500 0.983175
410.600 1.059701
410.700 1.129172
410.800 1.183989
410.900 1.226594
411.000 1.270285
411.100 1.302307
411.200 1.337313
411.300 1.363908
411.400 1.387246
411.500 1.410855
411.600 1.429851
411.700 1.440163
411.800 1.443148
411.900 1.445862
412.000 1.449661
412.100 1.459701
412.200 1.469742
412.300 1.480054
412.400 1.492537
412.500 1.502578
412.600 1.501493
412.700 1.494708
412.800 1.488738
412.900 1.487110
413.000 1.486839
413.100 1.487653
413.200 1.491723
413.300 1.500678
413.400 1.518318
413.500 1.529715
413.600 1.537042
413.700 1.543012
413.800 1.550068
413.900 1.556581
414.000 1.556852
414.100 1.547083
414.200 1.532157
414.300 1.517232
414.400 1.513433
414.500 1.521303
414.600 1.534600
414.700 1.542469
414.800 1.545455
414.900 1.546540
415.000 1.550068
415.100 1.556038
415.200 1.556581
415.300 1.554138
415.400 1.549254
