# Wavelength (nm)   F_lamA (normalized erg/cm2/s/A)9.100 0.000732
9.400 0.000831
9.600 0.000899
9.800 0.000969
10.000 0.001041
10.200 0.001115
10.400 0.001191
10.600 0.001268
10.800 0.001347
11.000 0.001428
11.400 0.001596
11.800 0.001773
12.100 0.001915
12.500 0.002119
12.700 0.002229
12.800 0.002287
13.100 0.002472
13.200 0.002539
13.400 0.002679
13.700 0.002913
14.000 0.003180
14.300 0.003489
14.700 0.003981
15.100 0.004585
15.500 0.005329
15.900 0.006241
16.200 0.007058
16.600 0.008348
17.000 0.009906
17.300 0.011275
17.700 0.013399
18.000 0.015239
18.200 0.016590
18.600 0.019625
19.100 0.024089
19.400 0.027155
19.800 0.031715
20.200 0.036882
20.500 0.041170
21.000 0.049120
21.600 0.060051
22.000 0.068257
22.300 0.074872
22.700 0.084355
23.000 2.633447
23.400 2.898921
24.000 3.736513
24.600 5.102215
25.200 6.232254
25.700 4.821124
26.000 6.882453
26.400 8.688245
26.900 8.841567
27.400 8.977853
27.900 8.631459
28.400 9.080068
29.000 9.034639
29.600 8.304940
30.100 5.755253
30.800 7.152186
31.800 8.901193
32.800 8.923907
33.800 8.747871
34.800 8.586031
35.700 8.708120
36.600 8.810335
37.500 8.662692
38.500 8.199886
39.500 8.407155
40.500 8.418512
41.400 8.307780
42.200 8.094832
43.000 7.958546
44.100 7.969903
45.100 7.836457
46.000 7.620670
47.000 7.484384
48.000 7.419080
49.000 7.183419
50.000 7.163543
50.600 7.705849
51.200 9.131175
52.000 8.955139
53.000 8.793299
54.000 8.330494
55.000 8.231119
56.000 8.449744
57.000 8.339012
58.000 8.077797
59.000 8.040886
60.000 7.805224
61.000 7.583759
62.000 7.663260
63.000 7.498580
64.000 7.419080
65.000 7.251562
65.800 7.069847
66.500 7.084043
67.500 7.007382
68.500 6.751846
69.500 6.766042
70.500 6.504827
71.600 6.541738
72.600 6.445202
73.500 6.360023
74.500 6.223737
75.500 6.110165
76.500 5.956843
77.500 5.905735
78.500 5.800681
79.500 5.712663
80.500 5.638842
81.500 5.559341
82.500 5.485520
83.500 5.258376
84.500 5.303805
85.500 5.210108
86.500 5.156161
87.500 5.079500
88.500 5.000000
89.500 4.920500
90.500 4.812606
91.500 5.139125
92.500 8.949461
93.500 12.538330
94.500 18.463941
95.500 21.158433
96.500 24.687677
97.500 14.900625
98.500 26.294719
99.500 25.965361
100.500 26.819989
101.500 23.733674
102.500 13.617263
103.500 21.729131
104.500 25.689949
105.500 25.917093
106.500 24.656445
107.500 25.039750
108.500 23.373083
109.500 24.361158
110.500 23.515048
111.500 23.103350
112.500 22.004543
113.500 22.220329
114.500 21.379898
115.500 21.135718
116.500 20.758092
117.500 18.605906
118.500 19.293015
119.500 17.708688
120.500 15.437252
121.500 9.307212
122.500 14.710392
123.500 16.655309
124.500 17.021579
125.500 17.086882
126.500 16.695060
127.500 16.822828
128.500 16.658149
129.500 16.022147
130.500 15.726860
131.500 15.868825
132.500 15.462805
133.500 15.039750
134.500 15.070982
135.500 14.801249
136.500 14.457694
137.500 14.219194
138.500 14.040318
139.500 13.373083
140.500 13.123225
141.500 13.302101
142.500 13.052243
143.500 12.850653
144.200 12.745599
144.700 12.637706
145.500 12.450312
146.500 12.206133
147.500 12.013061
148.500 11.817149
149.500 11.604202
150.500 11.391255
151.200 11.226576
151.700 11.169790
152.500 10.971039
153.500 10.630324
154.500 10.434412
155.500 10.210108
156.500 10.119250
157.500 10.059625
158.500 9.954571
159.500 9.846678
160.500 9.545713
161.500 9.400909
162.500 9.224872
163.500 9.077229
164.500 8.816014
165.500 8.796139
166.500 8.796139
167.200 8.554798
167.700 8.625781
168.500 8.549120
169.500 8.384441
170.500 8.222601
171.500 8.063600
172.500 7.944350
173.500 7.915957
174.500 7.759796
175.500 7.691652
176.500 7.464509
177.500 7.458830
178.500 7.345258
179.500 7.277115
180.500 7.183419
181.500 7.055650
182.500 6.961953
183.500 6.859739
184.500 6.695060
185.500 6.564452
186.500 6.496309
187.500 6.470755
188.500 6.317433
189.500 6.189665
190.500 6.186826
191.500 6.044861
192.500 5.954003
193.500 5.911414
194.500 5.885860
195.500 5.735378
196.700 5.715503
197.600 5.667235
198.400 5.576377
199.500 5.448609
200.500 5.425894
201.500 5.357751
202.500 5.309483
203.500 5.229983
204.500 5.167518
205.500 4.781374
206.500 4.829642
207.400 5.002839
207.800 4.951732
208.500 4.931857
209.500 4.849517
210.500 4.815446
211.500 4.772856
212.500 4.721749
213.500 4.645088
214.500 4.596820
215.500 4.554231
216.500 4.466212
217.500 4.426462
218.500 4.369676
219.500 4.355480
220.500 4.281658
221.500 4.202158
222.500 4.153890
223.500 4.145372
224.500 4.082907
225.500 4.003407
226.500 3.972175
227.500 3.943782
228.500 3.909710
229.500 3.824532
230.500 3.796139
231.500 3.762067
232.500 3.546281
233.500 3.665531
234.500 3.583191
235.500 3.588870
236.500 3.512209
237.500 3.500852
238.500 3.401476
239.500 3.415673
240.500 3.373083
241.500 3.341851
242.500 3.330494
243.500 3.276547
244.500 3.256672
245.500 3.225440
246.500 3.177172
247.500 3.143101
248.500 3.123225
249.500 3.043725
250.500 3.072118
251.300 2.986939
251.800 3.015332
252.500 2.972743
253.500 2.932993
254.500 2.910278
255.500 2.910278
256.500 2.873367
257.500 2.864850
258.500 2.838444
259.500 2.805792
260.500 2.768597
261.500 2.736229
262.500 2.719478
263.500 2.699035
264.500 2.715503
265.500 2.690233
266.500 2.646792
267.500 2.633447
268.500 2.619250
269.500 2.576377
270.500 2.561897
271.500 2.525838
272.500 2.493470
273.500 2.478137
274.500 2.425327
275.500 2.411982
276.500 2.404032
277.500 2.408007
278.500 2.379330
279.500 2.279955
280.500 2.293867
281.500 2.332765
282.500 2.304373
283.500 2.281090
284.500 2.261215
285.500 2.232538
286.500 2.228847
287.500 2.208688
288.500 2.195060
289.500 2.178024
291.000 2.161840
293.000 2.118683
295.000 2.077229
297.000 2.053379
299.000 2.021863
301.000 1.989211
303.000 1.954571
305.000 1.920500
307.000 1.885576
309.000 1.854344
311.000 1.821408
313.000 1.789324
315.000 1.760931
317.000 1.733958
319.000 1.691936
321.000 1.672913
323.000 1.645088
325.000 1.624929
327.000 1.605054
329.000 1.580636
331.000 1.558773
332.200 1.524134
332.300 1.537763
332.400 1.531516
332.500 1.522998
332.600 1.508234
332.700 1.492050
332.800 1.496593
332.900 1.504259
333.000 1.511925
333.100 1.514480
333.200 1.507950
333.300 1.496025
333.400 1.484668
333.500 1.479557
333.600 1.467632
333.700 1.450880
333.800 1.445769
333.900 1.450596
334.000 1.449461
334.100 1.457411
334.200 1.458546
334.300 1.481545
334.400 1.503123
334.500 1.511641
334.600 1.520727
334.700 1.518171
334.800 1.494605
334.900 1.454571
335.000 1.406871
335.100 1.409143
335.200 1.432709
335.300 1.446337
335.400 1.446337
335.500 1.435264
335.600 1.433560
335.700 1.438671
335.800 1.435548
335.900 1.426462
336.000 1.423623
336.100 1.418228
336.200 1.429585
336.300 1.430153
336.400 1.429302
336.500 1.417093
336.600 1.404032
336.700 1.394946
336.800 1.387848
336.900 1.390119
337.000 1.403464
337.100 1.406019
337.200 1.391539
337.300 1.390119
337.400 1.400341
337.500 1.427882
337.600 1.443214
337.700 1.421919
337.800 1.402328
337.900 1.391823
338.000 1.401760
338.100 1.419648
338.200 1.438671
338.300 1.452300
338.400 1.450028
338.500 1.448893
338.600 1.444350
338.700 1.436968
338.800 1.433844
338.900 1.435548
339.000 1.441794
339.100 1.449177
339.200 1.448609
339.300 1.442646
339.400 1.452300
339.500 1.460534
339.600 1.466780
339.700 1.459682
339.800 1.450312
339.900 1.422203
340.000 1.398069
340.100 1.402612
340.200 1.390403
340.300 1.389267
340.400 1.389835
340.500 1.393242
340.600 1.382737
340.700 1.379898
340.800 1.390687
340.900 1.399489
341.000 1.403748
341.100 1.386996
341.200 1.390403
341.300 1.407723
341.400 1.423907
341.500 1.425894
341.600 1.424475
341.700 1.423339
341.800 1.429018
341.900 1.436684
342.000 1.438103
342.100 1.436968
342.200 1.427882
342.300 1.420784
342.400 1.417093
342.500 1.414821
342.600 1.421068
342.700 1.427598
342.800 1.434696
342.900 1.439523
343.000 1.426178
343.100 1.420216
343.200 1.417376
343.300 1.421919
343.400 1.427882
343.500 1.429869
343.600 1.432709
343.700 1.432709
343.800 1.432993
343.900 1.423907
344.000 1.404032
344.100 1.386428
344.200 1.380466
344.300 1.384157
344.400 1.388132
344.500 1.390687
344.600 1.400909
344.700 1.411982
344.800 1.429869
344.900 1.441511
345.000 1.409426
345.100 1.371664
345.200 1.353208
345.300 1.346110
345.400 1.356616
345.500 1.358887
345.600 1.356616
345.700 1.356048
345.800 1.351505
345.900 1.351789
346.000 1.348949
346.100 1.347246
346.200 1.353208
346.300 1.375639
346.400 1.365417
346.500 1.362862
346.600 1.365701
346.700 1.366837
346.800 1.367121
346.900 1.369392
347.000 1.378194
347.100 1.375355
347.200 1.368257
347.300 1.359455
347.400 1.356899
347.500 1.351789
347.600 1.350653
347.700 1.342703
347.800 1.332198
347.900 1.326235
348.000 1.335889
348.100 1.345826
348.200 1.337308
348.300 1.324815
348.400 1.324248
348.500 1.346110
348.600 1.366553
348.700 1.376491
348.800 1.381885
348.900 1.374503
349.000 1.363146
349.100 1.361726
349.200 1.371948
349.300 1.375639
349.400 1.369108
349.500 1.356332
349.600 1.348949
349.700 1.354628
349.800 1.361726
349.900 1.361158
350.000 1.340148
350.100 1.327939
350.200 1.334469
350.300 1.338444
350.400 1.330210
350.500 1.316865
350.600 1.310051
350.700 1.312039
350.800 1.319421
350.900 1.323112
351.000 1.327655
351.100 1.330778
351.200 1.327939
351.300 1.316581
351.400 1.310619
351.500 1.317717
351.600 1.328507
351.700 1.333333
351.800 1.336173
351.900 1.335037
352.000 1.333901
352.100 1.329358
352.200 1.323112
352.300 1.323680
352.400 1.327371
352.500 1.326519
352.600 1.328790
352.700 1.327655
352.800 1.330210
352.900 1.337308
353.000 1.345826
353.100 1.352924
353.200 1.359171
353.300 1.352641
353.400 1.337308
353.500 1.330494
353.600 1.331062
353.700 1.327655
353.800 1.329642
353.900 1.332765
354.000 1.338728
354.100 1.340432
354.200 1.340148
354.300 1.340999
354.400 1.344691
354.500 1.346962
354.600 1.348949
354.700 1.353208
354.800 1.356616
354.900 1.352073
355.000 1.347814
355.100 1.350653
355.200 1.354344
355.300 1.352641
355.400 1.342703
355.500 1.337308
355.600 1.340148
355.700 1.347814
355.800 1.350085
355.900 1.344123
356.000 1.337024
356.100 1.340716
356.200 1.345542
356.300 1.342135
356.400 1.331630
356.500 1.323396
356.600 1.323112
356.700 1.321408
356.800 1.325099
356.900 1.320557
357.000 1.307496
357.100 1.280239
357.200 1.264055
357.300 1.261499
357.400 1.262351
357.500 1.266326
357.600 1.274276
357.700 1.275412
357.800 1.272288
357.900 1.268313
358.000 1.268597
358.100 1.268881
358.200 1.264622
358.300 1.263203
358.400 1.262635
358.500 1.256956
358.600 1.248438
358.700 1.243044
358.800 1.239920
358.900 1.246451
359.000 1.256956
359.100 1.259796
359.200 1.257524
359.300 1.258944
359.400 1.260931
359.500 1.264622
359.600 1.266610
359.700 1.270017
359.800 1.275696
359.900 1.279955
360.000 1.283362
360.100 1.278535
360.200 1.277683
360.300 1.271721
360.400 1.266894
360.500 1.266610
360.600 1.269449
360.700 1.270301
360.800 1.273708
360.900 1.278819
361.000 1.281374
361.100 1.277115
361.200 1.274560
361.300 1.271437
361.400 1.270585
361.500 1.272288
361.600 1.276831
361.700 1.281942
361.800 1.285633
361.900 1.287621
362.000 1.283362
362.100 1.283078
362.200 1.294719
362.300 1.300398
362.400 1.297558
362.500 1.300681
362.600 1.308631
362.700 1.316865
362.800 1.315446
362.900 1.304373
363.000 1.294435
363.100 1.288189
363.200 1.288472
363.300 1.297558
363.400 1.311755
363.500 1.310051
363.600 1.286201
363.700 1.273140
363.800 1.274844
363.900 1.279955
364.000 1.281942
364.100 1.281658
364.200 1.279103
364.300 1.272288
364.400 1.265474
364.500 1.266042
364.600 1.262351
364.700 1.262635
364.800 1.265190
364.900 1.264622
365.000 1.265190
365.100 1.264622
365.200 1.266894
365.300 1.269449
365.400 1.270869
365.500 1.272005
365.600 1.275696
365.700 1.274276
365.800 1.273140
365.900 1.270869
366.000 1.262067
366.100 1.258660
366.200 1.255253
366.300 1.259512
366.400 1.263203
366.500 1.262067
366.600 1.260363
366.700 1.254401
366.800 1.250994
366.900 1.253265
367.000 1.257524
367.100 1.258944
367.200 1.261215
367.300 1.258092
367.400 1.252697
367.500 1.242760
367.600 1.236229
367.700 1.233106
367.800 1.231119
367.900 1.233958
368.000 1.237649
368.100 1.243612
368.200 1.241340
368.300 1.237649
368.400 1.236513
368.500 1.231687
368.600 1.223169
368.700 1.222033
368.800 1.238501
368.900 1.261215
369.000 1.261499
369.100 1.241056
369.200 1.241340
369.300 1.258376
369.400 1.277683
369.500 1.276547
369.600 1.245883
369.700 1.229415
369.800 1.235094
369.900 1.275412
370.000 1.320840
370.100 1.325951
370.200 1.287053
370.300 1.212663
370.400 1.174901
370.500 1.174333
370.600 1.225440
370.700 1.278819
370.800 1.320840
370.900 1.301533
371.000 1.243896
371.100 1.185406
371.200 1.151618
371.300 1.172913
371.400 1.235945
371.500 1.334185
371.600 1.394662
371.700 1.429018
371.800 1.417944
371.900 1.351789
372.000 1.235094
372.100 1.162124
372.200 1.118399
372.300 1.151334
372.400 1.235378
372.500 1.343271
372.600 1.406303
372.700 1.469620
372.800 1.495741
372.900 1.500852
373.000 1.476434
373.100 1.405735
373.200 1.285349
373.300 1.184554
373.400 1.095400
373.500 1.079216
373.600 1.132595
373.700 1.246735
373.800 1.350369
373.900 1.475866
374.000 1.545713
374.100 1.595968
374.200 1.610733
374.300 1.600227
374.400 1.571266
374.500 1.524418
374.600 1.445486
374.700 1.344974
374.800 1.235945
374.900 1.111584
375.000 1.065304
375.100 1.081204
375.200 1.165815
375.300 1.278819
375.400 1.404316
375.500 1.484384
375.600 1.560761
375.700 1.590006
375.800 1.604202
375.900 1.604770
376.000 1.599943
376.100 1.599943
376.200 1.616979
376.300 1.611584
376.400 1.588018
376.500 1.535207
376.600 1.462237
376.700 1.384157
376.800 1.264338
376.900 1.146224
377.000 1.054798
377.100 1.020727
377.200 1.084043
377.300 1.204145
377.400 1.310051
377.500 1.417376
377.600 1.501988
377.700 1.572686
377.800 1.643668
377.900 1.688245
378.000 1.733674
378.100 1.758092
378.200 1.776831
378.300 1.781658
378.400 1.783930
378.500 1.785065
378.600 1.776263
378.700 1.758376
378.800 1.738785
378.900 1.712379
379.000 1.674617
379.100 1.633163
379.200 1.569279
379.300 1.498864
379.400 1.409994
379.500 1.282794
379.600 1.166383
379.700 1.047416
379.800 0.992334
379.900 1.024702
380.000 1.137990
380.100 1.259512
380.200 1.394378
380.300 1.480409
380.400 1.561897
380.500 1.622942
380.600 1.663260
380.700 1.706701
380.800 1.740204
380.900 1.778251
381.000 1.808064
381.100 1.826235
381.200 1.822544
381.300 1.810335
381.400 1.798694
381.500 1.800681
381.600 1.801533
381.700 1.799830
381.800 1.788189
381.900 1.762919
382.000 1.743328
382.100 1.736229
382.200 1.749858
382.300 1.750994
382.400 1.730835
382.500 1.701590
382.600 1.661556
382.700 1.631175
382.800 1.586599
382.900 1.528677
383.000 1.467632
383.100 1.379330
383.200 1.289324
383.300 1.167235
383.400 1.031232
383.500 0.967064
383.600 0.957694
383.700 1.026689
383.800 1.136570
383.900 1.254969
384.000 1.354344
384.100 1.459966
384.200 1.531232
384.300 1.608177
384.400 1.657581
384.500 1.703294
384.600 1.738785
384.700 1.762635
384.800 1.782226
384.900 1.793015
385.000 1.804089
385.100 1.821976
385.200 1.834753
385.300 1.840148
385.400 1.836740
385.500 1.831062
385.600 1.824815
385.700 1.827087
385.800 1.840716
385.900 1.855764
386.000 1.865133
386.100 1.865701
386.200 1.850085
386.300 1.818569
386.400 1.812890
386.500 1.815730
386.600 1.821692
386.700 1.830494
386.800 1.836740
386.900 1.836173
387.000 1.825383
387.100 1.809483
387.200 1.786485
387.300 1.774276
387.400 1.772856
387.500 1.773992
387.600 1.762635
387.700 1.736229
387.800 1.712095
387.900 1.684554
388.000 1.661272
388.100 1.626065
388.200 1.570698
388.300 1.516468
388.400 1.442362
388.500 1.352924
388.600 1.243328
388.700 1.099943
388.800 0.992902
388.900 0.937252
389.000 0.971323
389.100 1.076377
389.200 1.214083
389.300 1.318569
389.400 1.418228
389.500 1.484100
389.600 1.549404
389.700 1.605338
389.800 1.641397
389.900 1.671210
390.000 1.691652
390.100 1.723737
390.200 1.756388
390.300 1.778819
390.400 1.789324
390.500 1.793015
390.600 1.798126
390.700 1.813174
390.800 1.840148
390.900 1.867405
391.000 1.878194
391.100 1.883305
391.200 1.877626
391.300 1.863998
391.400 1.852073
391.500 1.854060
391.600 1.865985
391.700 1.871664
391.800 1.871380
391.900 1.863430
392.000 1.863714
392.100 1.865985
392.200 1.862862
392.300 1.855480
392.400 1.851789
392.500 1.856332
392.600 1.851505
392.700 1.845542
392.800 1.827939
392.900 1.808915
393.000 1.787337
393.100 1.739637
393.200 1.644236
393.300 1.528393
393.400 1.511641
393.500 1.580636
393.600 1.679727
393.700 1.749290
393.800 1.796706
393.900 1.822260
394.000 1.841567
394.100 1.854912
394.200 1.857751
394.300 1.849233
394.400 1.837308
394.500 1.820840
394.600 1.812323
394.700 1.812323
394.800 1.810619
394.900 1.804089
395.000 1.795571
395.100 1.784214
395.200 1.773992
395.300 1.770869
395.400 1.766326
395.500 1.751846
395.600 1.731970
395.700 1.708404
395.800 1.693072
395.900 1.672629
396.000 1.639693
396.100 1.601079
396.200 1.547700
396.300 1.500852
396.400 1.432141
396.500 1.348382
396.600 1.239069
396.700 1.074106
396.800 0.926462
396.900 0.824248
397.000 0.804373
397.100 0.868257
397.200 0.990630
397.300 1.112720
397.400 1.241056
397.500 1.335321
397.600 1.418796
397.700 1.486087
397.800 1.527257
397.900 1.578081
398.000 1.609881
398.100 1.641397
398.200 1.664395
398.300 1.681715
398.400 1.704429
398.500 1.723453
398.600 1.734810
398.700 1.735945
398.800 1.757524
398.900 1.768313
399.000 1.777399
399.100 1.786769
399.200 1.791028
399.300 1.797842
399.400 1.801817
399.500 1.805792
399.600 1.802101
399.700 1.798694
399.800 1.797842
399.900 1.801533
400.000 1.796139
400.100 1.788756
400.200 1.787337
400.300 1.783362
400.400 1.783362
400.500 1.783362
400.600 1.785633
400.700 1.787905
400.800 1.792164
400.900 1.792164
401.000 1.791880
401.100 1.793867
401.200 1.798978
401.300 1.802669
401.400 1.803521
401.500 1.806928
401.600 1.814594
401.700 1.824532
401.800 1.833617
401.900 1.837592
402.000 1.836457
402.100 1.830778
402.200 1.819421
402.300 1.796990
402.400 1.768030
402.500 1.743612
402.600 1.737365
402.700 1.752981
402.800 1.774560
402.900 1.793299
403.000 1.806644
403.100 1.810903
403.200 1.814878
403.300 1.816581
403.400 1.820273
403.500 1.828790
403.600 1.834753
403.700 1.839012
403.800 1.840148
403.900 1.836740
404.000 1.836173
404.100 1.835605
404.200 1.831062
404.300 1.825667
404.400 1.813174
404.500 1.798978
404.600 1.791596
404.700 1.799546
404.800 1.811471
404.900 1.820840
405.000 1.822828
405.100 1.822260
405.200 1.819421
405.300 1.810051
405.400 1.804940
405.500 1.808915
405.600 1.812323
405.700 1.816014
405.800 1.816014
405.900 1.817717
406.000 1.817717
406.100 1.807212
406.200 1.794435
406.300 1.783646
406.400 1.766326
406.500 1.731119
406.600 1.727995
406.700 1.734810
406.800 1.735094
406.900 1.734810
407.000 1.726860
407.100 1.712663
407.200 1.704997
407.300 1.701874
407.400 1.705281
407.500 1.704429
407.600 1.691652
407.700 1.680579
407.800 1.673765
407.900 1.679727
408.000 1.689949
408.100 1.693072
408.200 1.690233
408.300 1.680863
408.400 1.668654
408.500 1.655593
408.600 1.642249
408.700 1.636286
408.800 1.627200
408.900 1.619250
409.000 1.599091
409.100 1.577229
409.200 1.552243
409.300 1.512493
409.400 1.475298
409.500 1.418796
409.600 1.361158
409.700 1.294151
409.800 1.203294
409.900 1.105622
410.000 0.985236
410.100 0.891255
410.200 0.862862
410.300 0.916241
410.400 1.023566
410.500 1.148495
410.600 1.235945
410.700 1.312039
410.800 1.371096
410.900 1.414537
411.000 1.457978
411.100 1.489779
411.200 1.524134
411.300 1.549972
411.400 1.574957
411.500 1.598240
411.600 1.616411
411.700 1.624077
411.800 1.622658
411.900 1.623793
412.000 1.626065
412.100 1.631175
412.200 1.636286
412.300 1.644520
412.400 1.657013
412.500 1.668938
412.600 1.663260
412.700 1.649347
412.800 1.637422
412.900 1.631743
413.000 1.631743
413.100 1.638274
413.200 1.646792
413.300 1.658433
413.400 1.675752
413.500 1.685122
413.600 1.691936
413.700 1.697047
413.800 1.704997
413.900 1.710960
414.000 1.710108
414.100 1.702442
414.200 1.689097
414.300 1.675468
414.400 1.668938
414.500 1.675185
414.600 1.687110
414.700 1.695060
414.800 1.696479
414.900 1.695344
415.000 1.699319
415.100 1.704997
