# Wavelength (nm)   F_lamA (normalized erg/cm2/s/A)9.100 0.000033
9.400 0.000058
9.600 0.000083
9.800 0.000117
10.000 0.000162
10.200 0.000220
10.400 0.000296
10.600 0.000394
10.800 0.000518
11.000 0.000673
11.400 0.001104
11.800 0.001747
12.100 0.002412
12.500 0.003617
12.700 0.004384
12.800 0.004814
13.100 0.006319
13.200 0.006899
13.400 0.008189
13.700 0.010486
14.000 0.013277
14.300 0.016639
14.700 0.022146
15.100 0.029016
15.500 0.037441
15.900 0.047701
16.200 0.056721
16.600 0.070704
17.000 0.087188
17.300 0.101346
17.700 0.122793
18.000 0.140954
18.200 0.154116
18.600 0.183010
19.100 0.224611
19.400 0.252403
19.800 0.293131
20.200 0.338228
20.500 0.374934
21.000 0.442056
21.600 0.532250
22.000 0.598497
22.300 0.651460
22.700 0.726272
23.000 17.933928
23.400 20.101381
24.000 25.869603
24.600 34.976403
25.200 44.048243
25.700 35.011362
26.000 48.907534
26.400 61.737458
26.900 63.642720
27.400 64.953679
27.900 60.880965
28.400 66.911379
29.000 66.858941
29.600 60.461458
30.100 39.503583
30.800 48.785177
31.800 62.698829
32.800 62.873623
33.800 61.143157
34.800 59.604964
35.700 61.475267
36.600 64.132145
37.500 62.891103
38.500 58.259046
39.500 61.248034
40.500 62.226883
41.400 61.475267
42.200 59.587485
43.000 58.206607
44.100 59.185457
45.100 58.416361
46.000 56.388743
47.000 55.409893
48.000 55.322496
49.000 53.085125
50.000 53.609509
50.600 57.472470
51.200 70.914176
52.000 69.061353
53.000 67.226009
54.000 62.698829
55.000 61.615102
56.000 65.163433
57.000 64.534172
58.000 62.331760
59.000 62.139486
60.000 59.797238
61.000 57.961895
62.000 59.657403
63.000 58.119210
64.000 57.839539
65.000 56.353784
65.800 54.675756
66.500 55.165181
67.500 54.798112
68.500 52.316029
69.500 52.822933
70.500 50.201014
71.600 51.232302
72.600 50.533124
73.500 49.903863
74.500 48.680301
75.500 47.736410
76.500 46.268135
77.500 46.075861
78.500 45.184408
79.500 44.590107
80.500 44.013284
81.500 43.453942
82.500 42.894599
83.500 40.569830
84.500 41.408845
85.500 40.604789
86.500 40.255200
87.500 39.660898
88.500 38.996679
89.500 38.332459
90.500 37.441007
91.500 37.965391
92.500 62.506555
93.500 81.856319
94.500 104.789372
95.500 111.029540
96.500 123.230205
97.500 86.278623
98.500 117.759133
99.500 109.736060
100.500 113.738857
101.500 110.417759
102.500 81.699004
103.500 103.915399
104.500 107.883237
105.500 105.348715
106.500 100.069918
107.500 99.370739
108.500 92.571229
109.500 96.137039
110.500 92.885859
111.500 90.893200
112.500 86.698130
113.500 87.397308
114.500 84.757909
115.500 82.870128
116.500 81.157140
117.500 72.749519
118.500 76.822234
119.500 74.462507
120.500 70.844258
121.500 54.029016
122.500 68.414613
123.500 68.938997
124.500 67.628037
125.500 66.806502
126.500 65.478063
127.500 64.516693
128.500 63.258172
129.500 60.950883
130.500 59.919594
131.500 59.447649
132.500 57.857018
133.500 56.388743
134.500 55.794442
135.500 54.623318
136.500 53.207481
137.500 52.001398
138.500 51.179864
139.500 47.456738
140.500 45.586436
141.500 48.208355
142.500 46.844957
143.500 46.373012
144.200 45.708792
144.700 45.236847
145.500 44.415312
146.500 43.558818
147.500 42.772243
148.500 42.108023
149.500 41.199091
150.500 40.360077
151.200 39.713337
151.700 39.363748
152.500 38.734487
153.500 37.231253
154.500 35.378430
155.500 34.923964
156.500 35.256074
157.500 35.011362
158.500 34.539416
159.500 33.945114
160.500 32.808949
161.500 32.197168
162.500 31.655305
163.500 30.991085
164.500 29.715085
165.500 30.396784
166.500 29.942318
167.200 29.225660
167.700 29.575249
168.500 29.103304
169.500 28.543961
170.500 27.949659
171.500 27.180563
172.500 26.813494
173.500 26.691138
174.500 26.149275
175.500 25.712288
176.500 25.240343
177.500 24.890753
178.500 24.541164
179.500 24.139137
180.500 23.789547
181.500 23.317602
182.500 22.950533
183.500 22.600944
184.500 22.041601
185.500 21.622094
186.500 21.359902
187.500 21.115190
188.500 20.573326
189.500 20.153819
190.500 20.066422
191.500 19.611956
192.500 19.192449
193.500 19.087572
194.500 18.895298
195.500 18.370914
196.700 18.231078
197.600 18.091243
198.400 17.741654
199.500 17.358853
200.500 17.217270
201.500 16.998776
202.500 16.794267
203.500 16.455165
204.500 16.210453
205.500 13.777312
206.500 14.408320
207.400 15.635378
207.800 15.520014
208.500 15.411641
209.500 15.165181
210.500 15.004370
211.500 14.869778
212.500 14.672260
213.500 14.438035
214.500 14.195071
215.500 14.109421
216.500 13.780808
217.500 13.695158
218.500 13.398007
219.500 13.336829
220.500 13.134067
221.500 12.824681
222.500 12.744275
223.500 12.583464
224.500 12.406922
225.500 12.095787
226.500 12.060829
227.500 11.901765
228.500 11.735711
229.500 11.470023
230.500 11.279497
231.500 11.246286
232.500 10.854746
233.500 10.928159
234.500 10.769096
235.500 10.651984
236.500 10.487677
237.500 10.356581
238.500 10.054186
239.500 10.069918
240.500 9.938822
241.500 9.809474
242.500 9.701101
243.500 9.559518
244.500 9.445901
245.500 9.323545
246.500 9.197693
247.500 9.078832
248.500 8.968712
249.500 8.624366
250.500 8.730991
251.300 8.328963
251.800 8.568432
252.500 8.503758
253.500 8.395385
254.500 8.283517
255.500 8.201363
256.500 8.094739
257.500 8.005593
258.500 7.907708
259.500 7.802832
260.500 7.708443
261.500 7.608810
262.500 7.524908
263.500 7.434015
264.500 7.371089
265.500 7.281944
266.500 7.180563
267.500 7.096661
268.500 7.030239
269.500 6.920119
270.500 6.858941
271.500 6.771543
272.500 6.668415
273.500 6.516343
274.500 6.516343
275.500 6.444678
276.500 6.357280
277.500 6.317077
278.500 6.238420
279.500 6.119560
280.500 6.072365
281.500 6.032162
282.500 5.943017
283.500 5.876595
284.500 5.824157
285.500 5.755987
286.500 5.698304
287.500 5.633630
288.500 5.572452
289.500 5.509526
291.000 5.423877
293.000 5.301521
295.000 5.168677
297.000 5.072540
299.000 4.962419
301.000 4.840063
303.000 4.719455
305.000 4.604090
307.000 4.490474
309.000 4.382101
311.000 4.277224
313.000 4.172347
315.000 4.074463
317.000 3.978325
319.000 3.866457
321.000 3.768572
323.000 3.705646
325.000 3.623492
327.000 3.543087
329.000 3.462681
331.000 3.389268
332.200 3.375284
332.300 3.389268
332.400 3.371788
332.500 3.357805
332.600 3.342073
332.700 3.328089
332.800 3.314106
332.900 3.312358
333.000 3.307114
333.100 3.305366
333.200 3.294879
333.300 3.272155
333.400 3.256424
333.500 3.238944
333.600 3.221465
333.700 3.217969
333.800 3.214473
333.900 3.205733
334.000 3.184758
334.100 3.190002
334.200 3.209229
334.300 3.270407
334.400 3.307114
334.500 3.336829
334.600 3.357805
334.700 3.364796
334.800 3.324594
334.900 3.256424
335.000 3.135815
335.100 3.113092
335.200 3.137563
335.300 3.144555
335.400 3.137563
335.500 3.123580
335.600 3.128824
335.700 3.137563
335.800 3.151547
335.900 3.160287
336.000 3.158539
336.100 3.151547
336.200 3.156791
336.300 3.151547
336.400 3.148051
336.500 3.118336
336.600 3.088621
336.700 3.065898
336.800 3.060654
336.900 3.069393
337.000 3.090369
337.100 3.086873
337.200 3.053662
337.300 3.050166
337.400 3.064150
337.500 3.090369
337.600 3.102604
337.700 3.079881
337.800 3.074637
337.900 3.083377
338.000 3.113092
338.100 3.141059
338.200 3.141059
338.300 3.128824
338.400 3.114840
338.500 3.135815
338.600 3.165531
338.700 3.183010
338.800 3.176018
338.900 3.146303
339.000 3.139311
339.100 3.137563
339.200 3.160287
339.300 3.176018
339.400 3.214473
339.500 3.210977
339.600 3.183010
339.700 3.148051
339.800 3.118336
339.900 3.048418
340.000 3.004719
340.100 3.006467
340.200 2.992484
340.300 2.980248
340.400 2.994232
340.500 3.004719
340.600 3.001224
340.700 3.006467
340.800 3.015207
340.900 3.022199
341.000 3.023947
341.100 2.990736
341.200 2.990736
341.300 3.015207
341.400 3.041426
341.500 3.057158
341.600 3.051914
341.700 3.048418
341.800 3.053662
341.900 3.060654
342.000 3.057158
342.100 3.057158
342.200 3.053662
342.300 3.062402
342.400 3.062402
342.500 3.051914
342.600 3.051914
342.700 3.051914
342.800 3.072889
342.900 3.079881
343.000 3.057158
343.100 3.048418
343.200 3.034435
343.300 3.034435
343.400 3.037930
343.500 3.055410
343.600 3.062402
343.700 3.055410
343.800 3.032687
343.900 3.011711
344.000 2.968013
344.100 2.954029
344.200 2.957525
344.300 2.981996
344.400 2.999476
344.500 2.973256
344.600 2.959273
344.700 2.950533
344.800 2.971508
344.900 2.994232
345.000 2.936550
345.100 2.889355
345.200 2.871876
345.300 2.873623
345.400 2.887607
345.500 2.887607
345.600 2.885859
345.700 2.882363
345.800 2.873623
345.900 2.864884
346.000 2.856144
346.100 2.856144
346.200 2.877119
346.300 2.962769
346.400 2.920818
346.500 2.908582
346.600 2.919070
346.700 2.915574
346.800 2.905087
346.900 2.908582
347.000 2.915574
347.100 2.873623
347.200 2.866632
347.300 2.898095
347.400 2.896347
347.500 2.882363
347.600 2.854396
347.700 2.800210
347.800 2.751267
347.900 2.740780
348.000 2.770495
348.100 2.808949
348.200 2.796714
348.300 2.765251
348.400 2.775739
348.500 2.831673
348.600 2.847404
348.700 2.859640
348.800 2.894599
348.900 2.905087
349.000 2.887607
349.100 2.880615
349.200 2.903339
349.300 2.898095
349.400 2.891103
349.500 2.873623
349.600 2.838665
349.700 2.842160
349.800 2.861388
349.900 2.871876
350.000 2.838665
350.100 2.780982
350.200 2.782730
350.300 2.796714
350.400 2.779234
350.500 2.747771
350.600 2.737284
350.700 2.749519
350.800 2.763503
350.900 2.761755
351.000 2.760007
351.100 2.760007
351.200 2.749519
351.300 2.735536
351.400 2.746023
351.500 2.754763
351.600 2.770495
351.700 2.756511
351.800 2.754763
351.900 2.765251
352.000 2.768747
352.100 2.765251
352.200 2.758259
352.300 2.754763
352.400 2.777486
352.500 2.744275
352.600 2.737284
352.700 2.740780
352.800 2.751267
352.900 2.768747
353.000 2.773991
353.100 2.780982
353.200 2.794966
353.300 2.779234
353.400 2.747771
353.500 2.742528
353.600 2.747771
353.700 2.726796
353.800 2.723300
353.900 2.726796
354.000 2.749519
354.100 2.765251
354.200 2.760007
354.300 2.749519
354.400 2.753015
354.500 2.756511
354.600 2.740780
354.700 2.746023
354.800 2.760007
354.900 2.763503
355.000 2.744275
355.100 2.728544
355.200 2.735536
355.300 2.747771
355.400 2.749519
355.500 2.735536
355.600 2.719804
355.700 2.726796
355.800 2.737284
355.900 2.735536
356.000 2.725048
356.100 2.737284
356.200 2.749519
356.300 2.740780
356.400 2.725048
356.500 2.732040
356.600 2.740780
356.700 2.714560
356.800 2.718056
356.900 2.707569
357.000 2.672610
357.100 2.611432
357.200 2.595700
357.300 2.600944
357.400 2.592204
357.500 2.592204
357.600 2.604440
357.700 2.604440
357.800 2.599196
357.900 2.586960
358.000 2.595700
358.100 2.607936
358.200 2.606188
358.300 2.600944
358.400 2.593952
358.500 2.585212
358.600 2.576473
358.700 2.565985
358.800 2.557245
358.900 2.555497
359.000 2.578221
359.100 2.590456
359.200 2.581716
359.300 2.579969
359.400 2.583464
359.500 2.576473
359.600 2.567733
359.700 2.569481
359.800 2.571229
359.900 2.578221
360.000 2.602692
360.100 2.599196
360.200 2.604440
360.300 2.590456
360.400 2.576473
360.500 2.576473
360.600 2.578221
360.700 2.579969
360.800 2.590456
360.900 2.600944
361.000 2.595700
361.100 2.562489
361.200 2.560741
361.300 2.552001
361.400 2.536270
361.500 2.539766
361.600 2.562489
361.700 2.578221
361.800 2.590456
361.900 2.593952
362.000 2.571229
362.100 2.565985
362.200 2.588708
362.300 2.588708
362.400 2.576473
362.500 2.576473
362.600 2.592204
362.700 2.599196
362.800 2.585212
362.900 2.571229
363.000 2.583464
363.100 2.592204
363.200 2.578221
363.300 2.560741
363.400 2.578221
363.500 2.574725
363.600 2.524034
363.700 2.501311
363.800 2.504807
363.900 2.506555
364.000 2.515295
364.100 2.531026
364.200 2.536270
364.300 2.513547
364.400 2.483831
364.500 2.482084
364.600 2.489075
364.700 2.494319
364.800 2.503059
364.900 2.510051
365.000 2.508303
365.100 2.494319
365.200 2.489075
365.300 2.485579
365.400 2.478588
365.500 2.483831
365.600 2.485579
365.700 2.478588
365.800 2.475092
365.900 2.469848
366.000 2.459360
366.100 2.452368
366.200 2.447125
366.300 2.459360
366.400 2.466352
366.500 2.457612
366.600 2.450621
366.700 2.438385
366.800 2.433141
366.900 2.440133
367.000 2.443629
367.100 2.440133
367.200 2.433141
367.300 2.427897
367.400 2.426149
367.500 2.422653
367.600 2.433141
367.700 2.415662
367.800 2.406922
367.900 2.406922
368.000 2.412166
368.100 2.424401
368.200 2.426149
368.300 2.417410
368.400 2.406922
368.500 2.398182
368.600 2.389442
368.700 2.391190
368.800 2.410418
368.900 2.438385
369.000 2.431393
369.100 2.401678
369.200 2.408670
369.300 2.427897
369.400 2.427897
369.500 2.415662
369.600 2.384199
369.700 2.363223
369.800 2.366719
369.900 2.415662
370.000 2.469848
370.100 2.461108
370.200 2.398182
370.300 2.303793
370.400 2.261842
370.500 2.260094
370.600 2.324768
370.700 2.391190
370.800 2.434889
370.900 2.408670
371.000 2.338752
371.100 2.267086
371.200 2.225135
371.300 2.249607
371.400 2.324768
371.500 2.438385
371.600 2.485579
371.700 2.501311
371.800 2.490823
371.900 2.408670
372.000 2.267086
372.100 2.195420
372.200 2.163957
372.300 2.212900
372.400 2.291557
372.500 2.384199
372.600 2.424401
372.700 2.475092
372.800 2.499563
372.900 2.508303
373.000 2.492571
373.100 2.429645
373.200 2.310785
373.300 2.197168
373.400 2.102779
373.500 2.092292
373.600 2.155218
373.700 2.284566
373.800 2.382451
373.900 2.492571
374.000 2.545010
374.100 2.572977
374.200 2.567733
374.300 2.539766
374.400 2.520538
374.500 2.492571
374.600 2.424401
374.700 2.316029
374.800 2.195420
374.900 2.046845
375.000 2.015382
375.100 2.060829
375.200 2.167453
375.300 2.260094
375.400 2.364971
375.500 2.424401
375.600 2.473344
375.700 2.471596
375.800 2.455864
375.900 2.440133
376.000 2.422653
376.100 2.408670
376.200 2.461108
376.300 2.487327
376.400 2.469848
376.500 2.429645
376.600 2.361475
376.700 2.284566
376.800 2.170949
376.900 2.039853
377.000 1.938472
377.100 1.914001
377.200 2.003146
377.300 2.146478
377.400 2.258346
377.500 2.345744
377.600 2.401678
377.700 2.434889
377.800 2.468100
377.900 2.480336
378.000 2.496067
378.100 2.506555
378.200 2.513547
378.300 2.499563
378.400 2.490823
378.500 2.504807
378.600 2.508303
378.700 2.492571
378.800 2.478588
378.900 2.464604
379.000 2.441881
379.100 2.417410
379.200 2.391190
379.300 2.347492
379.400 2.270582
379.500 2.148226
379.600 2.006642
379.700 1.870302
379.800 1.816116
379.900 1.880790
380.000 2.048593
380.100 2.181437
380.200 2.286314
380.300 2.343996
380.400 2.382451
380.500 2.417410
380.600 2.408670
380.700 2.420905
380.800 2.445377
380.900 2.468100
381.000 2.489075
381.100 2.497815
381.200 2.480336
381.300 2.461108
381.400 2.447125
381.500 2.441881
381.600 2.433141
381.700 2.422653
381.800 2.391190
381.900 2.352736
382.000 2.333508
382.100 2.338752
382.200 2.394686
382.300 2.419157
382.400 2.412166
382.500 2.392938
382.600 2.366719
382.700 2.370215
382.800 2.363223
382.900 2.323020
383.000 2.272330
383.100 2.200664
383.200 2.106275
383.300 1.973431
383.400 1.802132
383.500 1.722077
383.600 1.729768
383.700 1.851075
383.800 1.989163
383.900 2.127250
384.000 2.204160
384.100 2.270582
384.200 2.314281
384.300 2.363223
384.400 2.405174
384.500 2.434889
384.600 2.427897
384.700 2.424401
384.800 2.419157
384.900 2.424401
385.000 2.420905
385.100 2.434889
385.200 2.445377
385.300 2.440133
385.400 2.419157
385.500 2.398182
385.600 2.380703
385.700 2.377207
385.800 2.392938
385.900 2.422653
386.000 2.434889
386.100 2.440133
386.200 2.415662
386.300 2.370215
386.400 2.363223
386.500 2.359727
386.600 2.357979
386.700 2.370215
386.800 2.382451
386.900 2.380703
387.000 2.364971
387.100 2.342248
387.200 2.324768
387.300 2.328264
387.400 2.343996
387.500 2.359727
387.600 2.354483
387.700 2.335256
387.800 2.328264
387.900 2.330012
388.000 2.338752
388.100 2.316029
388.200 2.277574
388.300 2.239119
388.400 2.197168
388.500 2.115015
388.600 1.992659
388.700 1.817864
388.800 1.669988
388.900 1.608984
389.000 1.696207
389.100 1.863311
389.200 2.036357
389.300 2.142982
389.400 2.214648
389.500 2.254851
389.600 2.284566
389.700 2.310785
389.800 2.321273
389.900 2.326516
390.000 2.331760
390.100 2.349240
390.200 2.364971
390.300 2.375459
390.400 2.380703
390.500 2.375459
390.600 2.361475
390.700 2.370215
390.800 2.398182
390.900 2.410418
391.000 2.398182
391.100 2.398182
391.200 2.394686
391.300 2.373711
391.400 2.366719
391.500 2.378955
391.600 2.385947
391.700 2.382451
391.800 2.371963
391.900 2.343996
392.000 2.333508
392.100 2.330012
392.200 2.316029
392.300 2.291557
392.400 2.286314
392.500 2.296801
392.600 2.293305
392.700 2.298549
392.800 2.300297
392.900 2.302045
393.000 2.289809
393.100 2.230379
393.200 2.060829
393.300 1.812620
393.400 1.835343
393.500 2.053837
393.600 2.207656
393.700 2.270582
393.800 2.300297
393.900 2.314281
394.000 2.331760
394.100 2.343996
394.200 2.342248
394.300 2.323020
394.400 2.312533
394.500 2.288062
394.600 2.279322
394.700 2.284566
394.800 2.288062
394.900 2.286314
395.000 2.282818
395.100 2.275826
395.200 2.268834
395.300 2.265338
395.400 2.261842
395.500 2.249607
395.600 2.235623
395.700 2.223388
395.800 2.219892
395.900 2.223388
396.000 2.218144
396.100 2.204160
396.200 2.170949
396.300 2.123755
396.400 2.066072
396.500 1.999650
396.600 1.896522
396.700 1.661947
396.800 1.413564
396.900 1.318825
397.000 1.367069
397.100 1.500437
397.200 1.681874
397.300 1.824856
397.400 1.940220
397.500 2.020626
397.600 2.080056
397.700 2.113267
397.800 2.127250
397.900 2.155218
398.000 2.169201
398.100 2.177941
398.200 2.177941
398.300 2.174445
398.400 2.183185
398.500 2.195420
398.600 2.165705
398.700 2.116763
398.800 2.181437
398.900 2.204160
399.000 2.218144
399.100 2.230379
399.200 2.232127
399.300 2.226883
399.400 2.209404
399.500 2.204160
399.600 2.195420
399.700 2.195420
399.800 2.202412
399.900 2.212900
400.000 2.197168
400.100 2.183185
400.200 2.183185
400.300 2.179689
400.400 2.179689
400.500 2.181437
400.600 2.179689
400.700 2.176193
400.800 2.172697
400.900 2.162209
401.000 2.156966
401.100 2.172697
401.200 2.179689
401.300 2.188429
401.400 2.195420
401.500 2.197168
401.600 2.200664
401.700 2.207656
401.800 2.218144
401.900 2.225135
402.000 2.219892
402.100 2.205908
402.200 2.193672
402.300 2.156966
402.400 2.094040
402.500 2.029365
402.600 2.013634
402.700 2.050341
402.800 2.118511
402.900 2.155218
403.000 2.190177
403.100 2.193672
403.200 2.195420
403.300 2.193672
403.400 2.193672
403.500 2.197168
403.600 2.198916
403.700 2.198916
403.800 2.200664
403.900 2.195420
404.000 2.197168
404.100 2.205908
404.200 2.198916
404.300 2.188429
404.400 2.181437
404.500 2.170949
404.600 2.167453
404.700 2.183185
404.800 2.195420
404.900 2.198916
405.000 2.191924
405.100 2.190177
405.200 2.197168
405.300 2.188429
405.400 2.184933
405.500 2.193672
405.600 2.193672
405.700 2.195420
405.800 2.200664
405.900 2.204160
406.000 2.197168
406.100 2.174445
406.200 2.162209
406.300 2.163957
406.400 2.122007
406.500 2.025870
406.600 2.053837
406.700 2.095787
406.800 2.097535
406.900 2.085300
407.000 2.071316
407.100 2.064324
407.200 2.071316
407.300 2.066072
407.400 2.073064
407.500 2.069568
407.600 2.052089
407.700 2.041601
407.800 2.046845
407.900 2.069568
408.000 2.087048
408.100 2.090544
408.200 2.087048
408.300 2.083552
408.400 2.064324
408.500 2.057333
408.600 2.050341
408.700 2.060829
408.800 2.067820
408.900 2.066072
409.000 2.050341
409.100 2.039853
409.200 2.034609
409.300 2.013634
409.400 1.987415
409.500 1.943716
409.600 1.898270
409.700 1.847579
409.800 1.754938
409.900 1.639574
410.000 1.501661
410.100 1.379304
410.200 1.356756
410.300 1.454816
410.400 1.615627
410.500 1.768922
410.600 1.852823
410.700 1.898270
410.800 1.936724
410.900 1.952456
411.000 1.968187
411.100 1.983919
411.200 1.997902
411.300 2.011886
411.400 2.029365
411.500 2.046845
411.600 2.057333
411.700 2.045097
411.800 2.018878
411.900 2.001398
412.000 1.994407
412.100 1.999650
412.200 2.003146
412.300 2.015382
412.400 2.029365
412.500 2.039853
412.600 2.036357
412.700 2.015382
412.800 1.992659
412.900 1.989163
413.000 1.996155
413.100 2.003146
413.200 2.008390
413.300 2.013634
413.400 2.029365
413.500 2.041601
413.600 2.041601
413.700 2.041601
413.800 2.048593
413.900 2.048593
414.000 2.046845
414.100 2.043349
