# Wavelength (nm)   F_lamA (normalized erg/cm2/s/A)9.100 0.000026
9.400 0.000045
9.600 0.000065
9.800 0.000091
10.000 0.000125
10.200 0.000171
10.400 0.000230
10.600 0.000305
10.800 0.000401
11.000 0.000522
11.400 0.000856
11.800 0.001355
12.100 0.001871
12.500 0.002804
12.700 0.003399
12.800 0.003732
13.100 0.004899
13.200 0.005349
13.400 0.006349
13.700 0.008129
14.000 0.010294
14.300 0.012900
14.700 0.017172
15.100 0.022493
15.500 0.029038
15.900 0.036971
16.200 0.043965
16.600 0.054810
17.000 0.067587
17.300 0.078555
17.700 0.095183
18.000 0.109267
18.200 0.119458
18.600 0.141924
19.100 0.174037
19.400 0.195673
19.800 0.227242
20.200 0.262213
20.500 0.290652
21.000 0.342632
21.600 0.412573
22.000 0.463873
22.300 0.504831
22.700 0.562934
23.000 13.893047
23.400 15.580351
24.000 20.043543
24.600 27.105729
25.200 34.140699
25.700 27.132943
26.000 37.909920
26.400 47.870459
26.900 49.353654
27.400 50.360593
27.900 47.203701
28.400 51.884610
29.000 51.857396
29.600 46.877126
30.100 30.616410
30.800 37.828276
31.800 48.632467
32.800 48.782147
33.800 47.435025
34.800 46.251191
35.700 47.707171
36.600 49.761872
37.500 48.809362
38.500 45.217036
39.500 47.543884
40.500 48.305892
41.400 47.734386
42.200 46.292013
43.000 45.217036
44.100 45.992652
45.100 45.407538
46.000 43.842700
47.000 43.107906
48.000 43.053477
49.000 41.338958
50.000 41.760784
50.600 45.312287
51.200 56.810450
52.000 55.286434
53.000 53.816846
54.000 50.142877
55.000 49.421690
56.000 52.374473
57.000 51.898217
58.000 50.088447
59.000 50.034018
60.000 48.128997
61.000 46.754660
62.000 48.210641
63.000 47.013199
64.000 46.795482
65.000 45.652470
65.800 44.318955
66.500 44.727174
67.500 44.482242
68.500 42.468363
69.500 42.971833
70.500 40.835488
71.600 41.787998
72.600 41.243707
73.500 40.767451
74.500 39.814941
75.500 39.080147
76.500 37.909920
77.500 37.787454
78.500 37.120697
79.500 36.671656
80.500 36.222615
81.500 35.800789
82.500 35.378963
83.500 33.433120
84.500 34.222343
85.500 33.596408
86.500 33.351476
87.500 32.888828
88.500 32.385359
89.500 31.881889
90.500 31.160702
91.500 31.854674
92.500 56.347802
93.500 75.656552
94.500 99.251599
95.500 105.932780
96.500 118.356239
97.500 80.038100
98.500 113.416791
99.500 105.891958
100.500 109.933324
101.500 106.477072
102.500 76.853994
103.500 99.945571
104.500 104.980269
105.500 102.530957
106.500 97.060825
107.500 96.720642
108.500 90.012247
109.500 93.767860
110.500 90.502109
111.500 88.651517
112.500 84.338005
113.500 85.344945
114.500 82.623486
115.500 80.990611
116.500 79.412165
117.500 70.540210
118.500 75.112260
119.500 72.676555
120.500 68.784869
121.500 51.231460
122.500 66.634916
123.500 67.601034
124.500 66.349163
125.500 65.546333
126.500 64.280855
127.500 63.409988
128.500 62.212546
129.500 59.763233
130.500 58.824330
131.500 58.524969
132.500 56.919309
133.500 55.408899
134.500 54.946251
135.500 53.857668
136.500 52.442509
137.500 51.299497
138.500 50.483059
139.500 46.727446
140.500 45.026534
141.500 47.584705
142.500 46.210369
143.500 45.788543
144.200 45.189822
144.700 44.713566
145.500 43.897129
146.500 43.053477
147.500 42.264254
148.500 41.624711
149.500 40.726629
150.500 39.882977
151.200 39.216220
151.700 38.903252
152.500 38.277317
153.500 36.712478
154.500 34.957137
155.500 34.480882
156.500 34.834671
157.500 34.630562
158.500 34.195129
159.500 33.623622
160.500 32.467002
161.500 31.854674
162.500 31.364812
163.500 30.766091
164.500 29.527827
165.500 30.140155
166.500 29.718329
167.200 28.997142
167.700 29.391754
168.500 28.915499
169.500 28.357600
170.500 27.758879
171.500 26.996870
172.500 26.629473
173.500 26.520615
174.500 26.003538
175.500 25.581712
176.500 25.078242
177.500 24.751667
178.500 24.425092
179.500 24.030480
180.500 23.703905
181.500 23.214043
182.500 22.873860
183.500 22.533678
184.500 21.921350
185.500 21.513131
186.500 21.268200
187.500 21.050483
188.500 20.465369
189.500 20.029936
190.500 19.989114
191.500 19.512859
192.500 19.091033
193.500 19.036604
194.500 18.859709
195.500 18.301810
196.700 18.206559
197.600 18.070486
198.400 17.716696
199.500 17.308477
200.500 17.199619
201.500 16.995510
202.500 16.805007
203.500 16.451218
204.500 16.206287
205.500 13.947476
206.500 14.546197
207.400 15.675602
207.800 15.512315
208.500 15.417064
209.500 15.144918
210.500 15.008845
211.500 14.872772
212.500 14.695877
213.500 14.450946
214.500 14.206014
215.500 14.124371
216.500 13.811403
217.500 13.716152
218.500 13.431759
219.500 13.362362
220.500 13.160974
221.500 12.865696
222.500 12.771806
223.500 12.612600
224.500 12.441148
225.500 12.143149
226.500 12.098245
227.500 11.939039
228.500 11.777113
229.500 11.503606
230.500 11.336236
231.500 11.287250
232.500 10.851817
233.500 10.971561
234.500 10.810995
235.500 10.698054
236.500 10.534767
237.500 10.405497
238.500 10.117023
239.500 10.119744
240.500 9.990475
241.500 9.859845
242.500 9.753708
243.500 9.612192
244.500 9.499252
245.500 9.378147
246.500 9.252960
247.500 9.134576
248.500 9.024357
249.500 8.663764
250.500 8.787590
251.300 8.412029
251.800 8.625663
252.500 8.561709
253.500 8.451490
254.500 8.338549
255.500 8.259627
256.500 8.153490
257.500 8.065043
258.500 7.967070
259.500 7.863655
260.500 7.768404
261.500 7.670431
262.500 7.586066
263.500 7.494897
264.500 7.435025
265.500 7.343856
266.500 7.243162
267.500 7.158797
268.500 7.096204
269.500 6.980542
270.500 6.924752
271.500 6.836304
272.500 6.730167
273.500 6.592734
274.500 6.579126
275.500 6.508368
276.500 6.417200
277.500 6.381821
278.500 6.302898
279.500 6.181793
280.500 6.136889
281.500 6.097428
282.500 6.003538
283.500 5.936862
284.500 5.887876
285.500 5.821200
286.500 5.762689
287.500 5.696013
288.500 5.634780
289.500 5.572187
291.000 5.485100
293.000 5.362634
295.000 5.226561
297.000 5.134032
299.000 5.022452
301.000 4.898626
303.000 4.777521
305.000 4.659137
307.000 4.546197
309.000 4.434617
311.000 4.328480
313.000 4.222343
315.000 4.124371
317.000 4.027759
319.000 3.912097
321.000 3.818207
323.000 3.751531
325.000 3.668526
327.000 3.586883
329.000 3.505239
331.000 3.430399
332.200 3.423595
332.300 3.438563
332.400 3.419513
332.500 3.405906
332.600 3.389577
332.700 3.378691
332.800 3.365084
332.900 3.362362
333.000 3.356919
333.100 3.354198
333.200 3.344673
333.300 3.320180
333.400 3.302490
333.500 3.283440
333.600 3.267111
333.700 3.263029
333.800 3.257586
333.900 3.246700
334.000 3.226289
334.100 3.235814
334.200 3.256225
334.300 3.317458
334.400 3.354198
334.500 3.384134
334.600 3.407266
334.700 3.415431
334.800 3.373248
334.900 3.302490
335.000 3.177303
335.100 3.155531
335.200 3.180024
335.300 3.189550
335.400 3.180024
335.500 3.165056
335.600 3.169139
335.700 3.178664
335.800 3.194993
335.900 3.207239
336.000 3.208600
336.100 3.200435
336.200 3.204518
336.300 3.196353
336.400 3.192271
336.500 3.160974
336.600 3.132399
336.700 3.109267
336.800 3.102463
336.900 3.113349
337.000 3.136481
337.100 3.132399
337.200 3.098381
337.300 3.091577
337.400 3.103824
337.500 3.132399
337.600 3.146006
337.700 3.121513
337.800 3.117431
337.900 3.126956
338.000 3.159614
338.100 3.186828
338.200 3.188189
338.300 3.174582
338.400 3.160974
338.500 3.181385
338.600 3.209961
338.700 3.226289
338.800 3.219486
338.900 3.189550
339.000 3.184107
339.100 3.184107
339.200 3.205878
339.300 3.223568
339.400 3.260308
339.500 3.257586
339.600 3.227650
339.700 3.189550
339.800 3.158253
339.900 3.087495
340.000 3.045312
340.100 3.049394
340.200 3.034426
340.300 3.020819
340.400 3.033066
340.500 3.043952
340.600 3.041230
340.700 3.048034
340.800 3.060280
340.900 3.067084
341.000 3.067084
341.100 3.030344
341.200 3.030344
341.300 3.056198
341.400 3.084773
341.500 3.101102
341.600 3.095659
341.700 3.091577
341.800 3.097020
341.900 3.103824
342.000 3.099741
342.100 3.101102
342.200 3.097020
342.300 3.105184
342.400 3.105184
342.500 3.094299
342.600 3.094299
342.700 3.095659
342.800 3.117431
342.900 3.122874
343.000 3.099741
343.100 3.090216
343.200 3.077970
343.300 3.077970
343.400 3.082052
343.500 3.101102
343.600 3.107906
343.700 3.098381
343.800 3.076609
343.900 3.054837
344.000 3.012655
344.100 2.997687
344.200 3.003130
344.300 3.027623
344.400 3.043952
344.500 3.018098
344.600 3.001769
344.700 2.993605
344.800 3.012655
344.900 3.035787
345.000 2.975915
345.100 2.928290
345.200 2.910600
345.300 2.911961
345.400 2.925568
345.500 2.926929
345.600 2.926929
345.700 2.922847
345.800 2.914682
345.900 2.905157
346.000 2.898354
346.100 2.896993
346.200 2.917404
346.300 3.000408
346.400 2.956865
346.500 2.947340
346.600 2.958226
346.700 2.954143
346.800 2.944618
346.900 2.947340
347.000 2.952783
347.100 2.911961
347.200 2.905157
347.300 2.937815
347.400 2.937815
347.500 2.924207
347.600 2.896993
347.700 2.841203
347.800 2.789495
347.900 2.778609
348.000 2.805824
348.100 2.845285
348.200 2.834399
348.300 2.803102
348.400 2.813988
348.500 2.869778
348.600 2.884746
348.700 2.896993
348.800 2.933732
348.900 2.945979
349.000 2.929650
349.100 2.922847
349.200 2.944618
349.300 2.939175
349.400 2.931011
349.500 2.914682
349.600 2.882025
349.700 2.884746
349.800 2.905157
349.900 2.911961
350.000 2.875221
350.100 2.816710
350.200 2.820792
350.300 2.834399
350.400 2.815349
350.500 2.782692
350.600 2.773166
350.700 2.785413
350.800 2.800381
350.900 2.800381
351.000 2.799020
351.100 2.799020
351.200 2.788134
351.300 2.773166
351.400 2.782692
351.500 2.793577
351.600 2.809906
351.700 2.794938
351.800 2.793577
351.900 2.805824
352.000 2.808545
352.100 2.804463
352.200 2.796299
352.300 2.792217
352.400 2.816710
352.500 2.784052
352.600 2.777249
352.700 2.779970
352.800 2.789495
352.900 2.807185
353.000 2.812628
353.100 2.819431
353.200 2.833039
353.300 2.818070
353.400 2.786774
353.500 2.782692
353.600 2.788134
353.700 2.766363
353.800 2.762281
353.900 2.766363
354.000 2.788134
354.100 2.803102
354.200 2.799020
354.300 2.788134
354.400 2.793577
354.500 2.799020
354.600 2.781331
354.700 2.785413
354.800 2.799020
354.900 2.801742
355.000 2.782692
355.100 2.769084
355.200 2.774527
355.300 2.785413
355.400 2.788134
355.500 2.775888
355.600 2.760920
355.700 2.767723
355.800 2.775888
355.900 2.773166
356.000 2.763641
356.100 2.775888
356.200 2.789495
356.300 2.779970
356.400 2.763641
356.500 2.769084
356.600 2.778609
356.700 2.752755
356.800 2.756838
356.900 2.745952
357.000 2.710573
357.100 2.647979
357.200 2.631651
357.300 2.635733
357.400 2.627568
357.500 2.627568
357.600 2.639815
357.700 2.639815
357.800 2.633011
357.900 2.622125
358.000 2.630290
358.100 2.643897
358.200 2.641176
358.300 2.635733
358.400 2.627568
358.500 2.620765
358.600 2.612600
358.700 2.601715
358.800 2.592189
358.900 2.592189
359.000 2.615322
359.100 2.627568
359.200 2.616683
359.300 2.615322
359.400 2.616683
359.500 2.611240
359.600 2.603075
359.700 2.604436
359.800 2.605797
359.900 2.612600
360.000 2.635733
360.100 2.633011
360.200 2.639815
360.300 2.627568
360.400 2.613961
360.500 2.612600
360.600 2.613961
360.700 2.615322
360.800 2.624847
360.900 2.637093
361.000 2.633011
361.100 2.600354
361.200 2.597632
361.300 2.589468
361.400 2.574500
361.500 2.575861
361.600 2.598993
361.700 2.613961
361.800 2.627568
361.900 2.633011
362.000 2.611240
362.100 2.605797
362.200 2.627568
362.300 2.626208
362.400 2.615322
362.500 2.615322
362.600 2.630290
362.700 2.637093
362.800 2.623486
362.900 2.611240
363.000 2.622125
363.100 2.631651
363.200 2.619404
363.300 2.601715
363.400 2.616683
363.500 2.612600
363.600 2.559532
363.700 2.537760
363.800 2.541842
363.900 2.543203
364.000 2.552728
364.100 2.567696
364.200 2.574500
364.300 2.551368
364.400 2.522792
364.500 2.521431
364.600 2.526874
364.700 2.532317
364.800 2.540482
364.900 2.547285
365.000 2.545925
365.100 2.532317
365.200 2.525514
365.300 2.522792
365.400 2.515989
365.500 2.520071
365.600 2.522792
365.700 2.514628
365.800 2.510546
365.900 2.503742
366.000 2.494217
366.100 2.487413
366.200 2.483331
366.300 2.494217
366.400 2.501021
366.500 2.491495
366.600 2.483331
366.700 2.472445
366.800 2.467002
366.900 2.475167
367.000 2.477888
367.100 2.473806
367.200 2.467002
367.300 2.461559
367.400 2.460199
367.500 2.456116
367.600 2.467002
367.700 2.449313
367.800 2.439788
367.900 2.439788
368.000 2.445231
368.100 2.457477
368.200 2.458838
368.300 2.450674
368.400 2.439788
368.500 2.431623
368.600 2.420738
368.700 2.423459
368.800 2.442509
368.900 2.468363
369.000 2.461559
369.100 2.431623
369.200 2.438427
369.300 2.456116
369.400 2.457477
369.500 2.445231
369.600 2.412573
369.700 2.392162
369.800 2.394884
369.900 2.442509
370.000 2.496938
370.100 2.490135
370.200 2.424820
370.300 2.328208
370.400 2.286025
370.500 2.286025
370.600 2.354062
370.700 2.422098
370.800 2.465642
370.900 2.438427
371.000 2.366308
371.100 2.290107
371.200 2.247925
371.300 2.272418
371.400 2.349980
371.500 2.465642
371.600 2.517349
371.700 2.533678
371.800 2.521431
371.900 2.435706
372.000 2.291468
372.100 2.219350
372.200 2.186692
372.300 2.238400
372.400 2.318683
372.500 2.411212
372.600 2.454756
372.700 2.509185
372.800 2.533678
372.900 2.539121
373.000 2.522792
373.100 2.456116
373.200 2.336372
373.300 2.220710
373.400 2.124099
373.500 2.114573
373.600 2.179888
373.700 2.314601
373.800 2.413934
373.900 2.525514
374.000 2.578582
374.100 2.608518
374.200 2.604436
374.300 2.575861
374.400 2.555450
374.500 2.528235
374.600 2.457477
374.700 2.347258
374.800 2.223432
374.900 2.071030
375.000 2.037012
375.100 2.083277
375.200 2.190774
375.300 2.284665
375.400 2.392162
375.500 2.452034
375.600 2.502381
375.700 2.505103
375.800 2.492856
375.900 2.477888
376.000 2.460199
376.100 2.446591
376.200 2.498299
376.300 2.522792
376.400 2.503742
376.500 2.461559
376.600 2.390801
376.700 2.311879
376.800 2.194856
376.900 2.058784
377.000 1.954007
377.100 1.928153
377.200 2.022044
377.300 2.167642
377.400 2.283304
377.500 2.373112
377.600 2.431623
377.700 2.465642
377.800 2.498299
377.900 2.510546
378.000 2.525514
378.100 2.537760
378.200 2.544564
378.300 2.530957
378.400 2.521431
378.500 2.536400
378.600 2.539121
378.700 2.525514
378.800 2.513267
378.900 2.498299
379.000 2.473806
379.100 2.446591
379.200 2.416655
379.300 2.373112
379.400 2.296911
379.500 2.173085
379.600 2.027487
379.700 1.885971
379.800 1.830181
379.900 1.896857
380.000 2.068309
380.100 2.203021
380.200 2.310518
380.300 2.369030
380.400 2.408491
380.500 2.443870
380.600 2.435706
380.700 2.449313
380.800 2.473806
380.900 2.495578
381.000 2.518710
381.100 2.528235
381.200 2.513267
381.300 2.496938
381.400 2.486053
381.500 2.479249
381.600 2.467002
381.700 2.450674
381.800 2.415295
381.900 2.374473
382.000 2.356783
382.100 2.364948
382.200 2.423459
382.300 2.447952
382.400 2.445231
382.500 2.427541
382.600 2.401687
382.700 2.403048
382.800 2.394884
382.900 2.351340
383.000 2.299633
383.100 2.226153
383.200 2.130902
383.300 1.994829
383.400 1.817934
383.500 1.736291
383.600 1.744455
383.700 1.866921
383.800 2.009797
383.900 2.152674
384.000 2.231596
384.100 2.299633
384.200 2.341815
384.300 2.392162
384.400 2.434345
384.500 2.464281
384.600 2.456116
384.700 2.454756
384.800 2.449313
384.900 2.454756
385.000 2.452034
385.100 2.467002
385.200 2.477888
385.300 2.469724
385.400 2.446591
385.500 2.426180
385.600 2.408491
385.700 2.407130
385.800 2.424820
385.900 2.456116
386.000 2.468363
386.100 2.471085
386.200 2.442509
386.300 2.394884
386.400 2.388080
386.500 2.386719
386.600 2.385359
386.700 2.396244
386.800 2.405769
386.900 2.404409
387.000 2.389441
387.100 2.366308
387.200 2.351340
387.300 2.356783
387.400 2.373112
387.500 2.388080
387.600 2.379916
387.700 2.363587
387.800 2.358144
387.900 2.359505
388.000 2.366308
388.100 2.341815
388.200 2.302354
388.300 2.262893
388.400 2.219350
388.500 2.136345
388.600 2.013879
388.700 1.835624
388.800 1.683222
388.900 1.620629
389.000 1.707715
389.100 1.879167
389.200 2.054701
389.300 2.163560
389.400 2.237039
389.500 2.280582
389.600 2.311879
389.700 2.337733
389.800 2.351340
389.900 2.356783
390.000 2.364948
390.100 2.381276
390.200 2.396244
390.300 2.407130
390.400 2.411212
390.500 2.407130
390.600 2.393523
390.700 2.401687
390.800 2.427541
390.900 2.437066
391.000 2.424820
391.100 2.426180
391.200 2.424820
391.300 2.405769
391.400 2.398966
391.500 2.411212
391.600 2.416655
391.700 2.412573
391.800 2.398966
391.900 2.370391
392.000 2.360865
392.100 2.358144
392.200 2.344537
392.300 2.317322
392.400 2.311879
392.500 2.322765
392.600 2.317322
392.700 2.326847
392.800 2.332290
392.900 2.337733
393.000 2.328208
393.100 2.271057
393.200 2.102327
393.300 1.856035
393.400 1.880528
393.500 2.096884
393.600 2.249286
393.700 2.311879
393.800 2.339094
393.900 2.349980
394.000 2.366308
394.100 2.375833
394.200 2.374473
394.300 2.354062
394.400 2.344537
394.500 2.318683
394.600 2.306436
394.700 2.311879
394.800 2.315961
394.900 2.314601
395.000 2.311879
395.100 2.305076
395.200 2.296911
395.300 2.292829
395.400 2.287386
395.500 2.275139
395.600 2.261532
395.700 2.250646
395.800 2.247925
395.900 2.250646
396.000 2.245203
396.100 2.231596
396.200 2.198939
396.300 2.149952
396.400 2.091441
396.500 2.024765
396.600 1.921350
396.700 1.688665
396.800 1.438291
396.900 1.340182
397.000 1.385222
397.100 1.518574
397.200 1.700912
397.300 1.847870
397.400 1.963532
397.500 2.045176
397.600 2.103688
397.700 2.136345
397.800 2.149952
397.900 2.178528
398.000 2.193496
398.100 2.204382
398.200 2.204382
398.300 2.200299
398.400 2.207103
398.500 2.219350
398.600 2.189414
398.700 2.141788
398.800 2.207103
398.900 2.228875
399.000 2.245203
399.100 2.254729
399.200 2.256089
399.300 2.249286
399.400 2.230235
399.500 2.227514
399.600 2.220710
399.700 2.222071
399.800 2.228875
399.900 2.238400
400.000 2.222071
400.100 2.207103
400.200 2.207103
400.300 2.204382
400.400 2.204382
400.500 2.205742
400.600 2.204382
400.700 2.198939
400.800 2.193496
400.900 2.179888
401.000 2.175806
401.100 2.194856
401.200 2.204382
401.300 2.213907
401.400 2.219350
401.500 2.220710
401.600 2.222071
401.700 2.230235
401.800 2.239761
401.900 2.246564
402.000 2.242482
402.100 2.227514
402.200 2.216628
402.300 2.178528
402.400 2.113213
402.500 2.045176
402.600 2.024765
402.700 2.062866
402.800 2.134984
402.900 2.177167
403.000 2.215267
403.100 2.220710
403.200 2.220710
403.300 2.217989
403.400 2.216628
403.500 2.220710
403.600 2.222071
403.700 2.222071
403.800 2.222071
403.900 2.216628
404.000 2.219350
404.100 2.227514
404.200 2.220710
404.300 2.211185
404.400 2.203021
404.500 2.194856
404.600 2.192135
404.700 2.207103
404.800 2.217989
404.900 2.222071
405.000 2.215267
405.100 2.213907
405.200 2.220710
405.300 2.211185
405.400 2.209824
405.500 2.216628
405.600 2.216628
405.700 2.217989
405.800 2.223432
405.900 2.224792
406.000 2.217989
406.100 2.198939
406.200 2.185331
406.300 2.186692
406.400 2.145870
406.500 2.047898
406.600 2.075112
406.700 2.115934
406.800 2.117295
406.900 2.105048
407.000 2.090080
407.100 2.083277
407.200 2.091441
407.300 2.087359
407.400 2.091441
407.500 2.088720
407.600 2.073752
407.700 2.064226
407.800 2.069669
407.900 2.090080
408.000 2.105048
408.100 2.109130
408.200 2.105048
408.300 2.100966
408.400 2.081916
408.500 2.076473
408.600 2.068309
408.700 2.079194
408.800 2.085998
408.900 2.083277
409.000 2.065587
409.100 2.054701
409.200 2.050619
409.300 2.028847
409.400 2.001633
409.500 1.958090
409.600 1.911825
409.700 1.861478
409.800 1.766227
409.900 1.649204
410.000 1.509049
410.100 1.383862
410.200 1.362090
410.300 1.461423
410.400 1.624711
410.500 1.778473
410.600 1.864199
410.700 1.911825
410.800 1.949925
410.900 1.967615
411.000 1.983943
411.100 2.000272
411.200 2.015240
411.300 2.027487
411.400 2.045176
411.500 2.062866
411.600 2.072391
411.700 2.061505
411.800 2.035651
411.900 2.017962
412.000 2.008437
412.100 2.015240
412.200 2.020683
412.300 2.034290
412.400 2.047898
412.500 2.056062
412.600 2.051980
412.700 2.031569
412.800 2.008437
412.900 2.004354
413.000 2.011158
413.100 2.019322
413.200 2.024765
413.300 2.031569
413.400 2.046537
413.500 2.058784
413.600 2.058784
413.700 2.058784
413.800 2.062866
413.900 2.062866
414.000 2.061505
414.100 2.056062
