# Wavelength (nm)   F_lamA (normalized erg/cm2/s/A)9.100 0.000708
9.400 0.000805
9.600 0.000873
9.800 0.000944
10.000 0.001017
10.200 0.001094
10.400 0.001173
10.600 0.001256
10.800 0.001342
11.000 0.001431
11.400 0.001620
11.800 0.001826
12.100 0.001994
12.500 0.002238
12.700 0.002370
12.800 0.002439
13.100 0.002657
13.200 0.002734
13.400 0.002895
13.700 0.003155
14.000 0.003438
14.300 0.003754
14.700 0.004222
15.100 0.004754
15.500 0.005364
15.900 0.006056
16.200 0.006637
16.600 0.007504
17.000 0.008485
17.300 0.009303
17.700 0.010512
18.000 0.011512
18.200 0.012227
18.600 0.013777
19.100 0.015951
19.400 0.017392
19.800 0.019477
20.200 0.021755
20.500 0.023600
21.000 0.026932
21.600 0.031377
22.000 0.034615
22.300 0.037189
22.700 0.040804
23.000 0.868999
23.400 0.968768
24.000 1.235685
24.600 1.658473
25.200 2.079237
25.700 1.658473
26.000 2.304222
26.400 2.900521
26.900 2.990168
27.400 3.048005
27.900 2.858589
28.400 3.137652
29.000 3.137652
29.600 2.836900
30.100 1.860324
30.800 2.291787
31.800 2.938115
32.800 2.946790
33.800 2.865240
34.800 2.792655
35.700 2.879121
36.600 3.001735
37.500 2.943898
38.500 2.727588
39.500 2.866686
40.500 2.912088
41.400 2.876807
42.200 2.789474
43.000 2.724407
44.100 2.770388
45.100 2.735107
46.000 2.640833
47.000 2.595720
48.000 2.592250
49.000 2.489011
50.000 2.514748
50.600 2.731926
51.200 3.432620
52.000 3.340081
53.000 3.250434
54.000 3.030654
55.000 2.987276
56.000 3.166570
57.000 3.137652
58.000 3.027762
59.000 3.027762
60.000 2.912088
61.000 2.831405
62.000 2.920763
63.000 2.848467
64.000 2.835743
65.000 2.767496
65.800 2.688259
66.500 2.713707
67.500 2.699537
68.500 2.578080
69.500 2.611047
70.500 2.482071
71.600 2.541353
72.600 2.509543
73.500 2.482360
74.500 2.425680
75.500 2.382302
76.500 2.313187
77.500 2.306825
78.500 2.268652
79.500 2.242047
80.500 2.216310
81.500 2.191729
82.500 2.168016
83.500 2.049451
84.500 2.100347
85.500 2.064199
86.500 2.050896
87.500 2.024291
88.500 1.994795
89.500 1.965876
90.500 1.923366
91.500 1.986119
92.500 3.779641
93.500 5.364372
94.500 7.755928
95.500 8.912666
96.500 10.347021
97.500 6.041064
98.500 10.925390
99.500 10.751880
100.500 11.211683
101.500 9.962406
102.500 5.792366
103.500 9.028340
104.500 11.003470
105.500 11.168305
106.500 10.569693
107.500 10.902256
108.500 10.159051
109.500 10.682475
110.500 10.326778
111.500 10.161943
112.500 9.644303
113.500 9.846732
114.500 9.407172
115.500 9.300174
116.500 9.155581
117.500 8.033545
118.500 8.389242
119.500 7.533256
120.500 6.509543
121.500 3.961828
122.500 6.252169
123.500 7.218045
124.500 7.489879
125.500 7.579526
126.500 7.379988
127.500 7.617120
128.500 7.625795
129.500 7.310584
130.500 7.174667
131.500 7.353962
132.500 7.180451
133.500 6.978022
134.500 7.061885
135.500 6.923077
136.500 6.737999
137.500 6.657027
138.500 6.610758
139.500 6.257953
140.500 6.148062
141.500 6.286871
142.500 6.168305
143.500 6.081550
144.200 6.072874
144.700 6.029497
145.500 5.942741
146.500 5.812608
147.500 5.731637
148.500 5.653557
149.500 5.561018
150.500 5.468479
151.200 5.367264
151.700 5.361481
152.500 5.254482
153.500 5.057837
154.500 4.991324
155.500 4.864083
156.500 4.823597
157.500 4.840949
158.500 4.823597
159.500 4.797571
160.500 4.624060
161.500 4.566223
162.500 4.462117
163.500 4.424523
164.500 4.326200
165.500 4.262580
166.500 4.326200
167.200 4.164257
167.700 4.242337
168.500 4.227877
169.500 4.129555
170.500 4.045691
171.500 3.973395
172.500 3.915558
173.500 3.935801
174.500 3.849046
175.500 3.843262
176.500 3.698670
177.500 3.730480
178.500 3.681319
179.500 3.666859
180.500 3.629265
181.500 3.559861
182.500 3.513592
183.500 3.467322
184.500 3.360324
185.500 3.311163
186.500 3.290920
187.500 3.290920
188.500 3.207056
189.500 3.143436
190.500 3.152111
191.500 3.082707
192.500 3.039329
193.500 3.019086
194.500 3.033545
195.500 2.949682
196.700 2.961249
197.600 2.941006
198.400 2.886929
199.500 2.821862
200.500 2.809138
201.500 2.773858
202.500 2.756507
203.500 2.722672
204.500 2.700694
205.500 2.508097
206.500 2.541932
207.400 2.636784
207.800 2.609312
208.500 2.602082
209.500 2.551475
210.500 2.538751
211.500 2.522267
212.500 2.502603
213.500 2.446501
214.500 2.439850
215.500 2.421631
216.500 2.365529
217.500 2.347600
218.500 2.326778
219.500 2.338057
220.500 2.290341
221.500 2.237710
222.500 2.213997
223.500 2.237420
224.500 2.192597
225.500 2.143146
226.500 2.126663
227.500 2.130422
228.500 2.121168
229.500 2.066512
230.500 2.059861
231.500 2.040486
232.500 1.899364
233.500 1.982938
234.500 1.917872
235.500 1.954598
236.500 1.890688
237.500 1.902834
238.500 1.822441
239.500 1.852805
240.500 1.825043
241.500 1.815789
242.500 1.833430
243.500 1.797571
244.500 1.801909
245.500 1.785425
246.500 1.759109
247.500 1.731926
248.500 1.726721
249.500 1.678716
250.500 1.724986
251.300 1.658184
251.800 1.664835
252.500 1.633892
253.500 1.619433
254.500 1.611336
255.500 1.632157
256.500 1.611625
257.500 1.622614
258.500 1.611047
259.500 1.591093
260.500 1.562753
261.500 1.541353
262.500 1.549740
263.500 1.551186
264.500 1.590804
265.500 1.584731
266.500 1.543667
267.500 1.549161
268.500 1.546848
269.500 1.508965
270.500 1.507808
271.500 1.473973
272.500 1.460382
273.500 1.466744
274.500 1.401099
275.500 1.406593
276.500 1.421053
277.500 1.436669
278.500 1.408907
279.500 1.277617
280.500 1.309717
281.500 1.408618
282.500 1.401966
283.500 1.383169
284.500 1.364951
285.500 1.331116
286.500 1.359167
287.500 1.349913
288.500 1.346154
289.500 1.337478
291.000 1.349913
293.000 1.321284
295.000 1.299306
297.000 1.291498
299.000 1.278485
301.000 1.268363
303.000 1.253904
305.000 1.241469
307.000 1.223829
309.000 1.211105
311.000 1.195200
313.000 1.179005
315.000 1.166859
317.000 1.158473
319.000 1.127530
321.000 1.128109
323.000 1.106998
325.000 1.110468
327.000 1.111047
329.000 1.100347
331.000 1.091961
332.200 1.037305
332.300 1.028051
332.400 1.020243
332.500 1.018219
332.600 1.011857
332.700 1.004049
332.800 1.014748
332.900 1.024291
333.000 1.035281
333.100 1.042510
333.200 1.037594
333.300 1.028629
333.400 1.014459
333.500 1.010121
333.600 1.001446
333.700 0.991903
333.800 0.995084
333.900 0.996819
334.000 0.997976
334.100 1.002892
334.200 1.001446
334.300 1.018797
334.400 1.035281
334.500 1.039040
334.600 1.038172
334.700 1.022846
334.800 0.998554
334.900 0.975419
335.000 0.964141
335.100 0.967322
335.200 0.972817
335.300 0.979468
335.400 0.986119
335.500 0.997397
335.600 1.001446
335.700 0.997687
335.800 0.979468
335.900 0.958068
336.000 0.942452
336.100 0.941874
336.200 0.958647
336.300 0.975130
336.400 0.984962
336.500 0.973395
336.600 0.962406
336.700 0.957201
336.800 0.955176
336.900 0.957201
337.000 0.950549
337.100 0.938982
337.200 0.924523
337.300 0.927993
337.400 0.944766
337.500 0.972527
337.600 0.989589
337.700 0.979468
337.800 0.963852
337.900 0.954598
338.000 0.961538
338.100 0.973973
338.200 0.982360
338.300 0.989300
338.400 0.990457
338.500 0.995951
338.600 0.993060
338.700 0.978022
338.800 0.965876
338.900 0.977444
339.000 0.995084
339.100 1.009254
339.200 1.004916
339.300 0.989589
339.400 0.995084
339.500 1.005495
339.600 1.016773
339.700 1.019086
339.800 1.018508
339.900 1.004338
340.000 0.988722
340.100 0.982938
340.200 0.968768
340.300 0.964141
340.400 0.960093
340.500 0.966455
340.600 0.964141
340.700 0.961249
340.800 0.960960
340.900 0.964430
341.000 0.974841
341.100 0.966455
341.200 0.964141
341.300 0.967611
341.400 0.974552
341.500 0.983806
341.600 0.986987
341.700 0.986698
341.800 0.992481
341.900 0.997976
342.000 1.002024
342.100 1.002313
342.200 0.989589
342.300 0.976287
342.400 0.971949
342.500 0.975130
342.600 0.980625
342.700 0.989300
342.800 1.002024
342.900 1.011857
343.000 1.009832
343.100 0.998265
343.200 0.985541
343.300 0.980625
343.400 0.988722
343.500 1.002024
343.600 1.005784
343.700 0.999422
343.800 0.991324
343.900 0.982649
344.000 0.972238
344.100 0.958068
344.200 0.950260
344.300 0.948814
344.400 0.951995
344.500 0.958647
344.600 0.972817
344.700 0.989300
344.800 1.004916
344.900 1.017351
345.000 0.995662
345.100 0.965876
345.200 0.947079
345.300 0.941006
345.400 0.951995
345.500 0.956044
345.600 0.953441
345.700 0.954020
345.800 0.950839
345.900 0.949971
346.000 0.942741
346.100 0.938693
346.200 0.945922
346.300 0.958068
346.400 0.955755
346.500 0.949682
346.600 0.951995
346.700 0.962984
346.800 0.971082
346.900 0.978311
347.000 0.984673
347.100 0.980335
347.200 0.972238
347.300 0.954598
347.400 0.943320
347.500 0.937536
347.600 0.939850
347.700 0.949682
347.800 0.952863
347.900 0.954020
348.000 0.962695
348.100 0.964719
348.200 0.958357
348.300 0.951706
348.400 0.951706
348.500 0.966165
348.600 0.979757
348.700 0.982649
348.800 0.978890
348.900 0.967611
349.000 0.957490
349.100 0.961828
349.200 0.973106
349.300 0.974263
349.400 0.968768
349.500 0.959225
349.600 0.951995
349.700 0.955176
349.800 0.955176
349.900 0.954309
350.000 0.942741
350.100 0.935512
350.200 0.943320
350.300 0.947947
350.400 0.945055
350.500 0.935801
350.600 0.928861
350.700 0.927704
350.800 0.926836
350.900 0.931463
351.000 0.937825
351.100 0.941874
351.200 0.939271
351.300 0.930307
351.400 0.926836
351.500 0.934644
351.600 0.949971
351.700 0.960382
351.800 0.962984
351.900 0.954598
352.000 0.947947
352.100 0.943609
352.200 0.938115
352.300 0.935223
352.400 0.931463
352.500 0.926547
352.600 0.931463
352.700 0.936958
352.800 0.945344
352.900 0.954887
353.000 0.963852
353.100 0.972238
353.200 0.970792
353.300 0.952285
353.400 0.936669
353.500 0.930596
353.600 0.941296
353.700 0.953441
353.800 0.958068
353.900 0.963852
354.000 0.964141
354.100 0.960960
354.200 0.962117
354.300 0.970792
354.400 0.975709
354.500 0.972817
354.600 0.969346
354.700 0.966165
354.800 0.966165
354.900 0.965876
355.000 0.968190
355.100 0.975998
355.200 0.975419
355.300 0.963852
355.400 0.953152
355.500 0.953152
355.600 0.960671
355.700 0.972817
355.800 0.978890
355.900 0.976865
356.000 0.971949
356.100 0.970503
356.200 0.968768
356.300 0.961249
356.400 0.950549
356.500 0.941296
356.600 0.938693
356.700 0.938404
356.800 0.938115
356.900 0.935223
357.000 0.926547
357.100 0.910353
357.200 0.900521
357.300 0.898496
357.400 0.901677
357.500 0.908907
357.600 0.916136
357.700 0.917872
357.800 0.919607
357.900 0.917582
358.000 0.913245
358.100 0.907461
358.200 0.901388
358.300 0.900231
358.400 0.896761
358.500 0.888375
358.600 0.876518
358.700 0.869867
358.800 0.874494
358.900 0.890977
359.000 0.906304
359.100 0.911220
359.200 0.907461
359.300 0.905437
359.400 0.908039
359.500 0.915847
359.600 0.922209
359.700 0.924812
359.800 0.926547
359.900 0.929439
360.000 0.931463
360.100 0.923366
360.200 0.918161
360.300 0.914980
360.400 0.917004
360.500 0.919896
360.600 0.919318
360.700 0.914691
360.800 0.911799
360.900 0.914691
361.000 0.916136
361.100 0.916426
361.200 0.919028
361.300 0.919607
361.400 0.922788
361.500 0.932331
361.600 0.936090
361.700 0.934644
361.800 0.930017
361.900 0.923944
362.000 0.924812
362.100 0.929150
362.200 0.936379
362.300 0.941585
362.400 0.943898
362.500 0.953152
362.600 0.966744
362.700 0.977733
362.800 0.973106
362.900 0.958357
363.000 0.937825
363.100 0.925969
363.200 0.930307
363.300 0.944187
363.400 0.953152
363.500 0.949104
363.600 0.937247
363.700 0.935512
363.800 0.940717
363.900 0.945055
364.000 0.948236
364.100 0.946212
364.200 0.939271
364.300 0.930885
364.400 0.925101
364.500 0.925969
364.600 0.923655
364.700 0.921631
364.800 0.921920
364.900 0.920474
365.000 0.920474
365.100 0.921631
365.200 0.928282
365.300 0.934644
365.400 0.941006
365.500 0.947947
365.600 0.954020
365.700 0.955755
365.800 0.953730
365.900 0.951417
366.000 0.946501
366.100 0.938982
366.200 0.932331
366.300 0.931463
366.400 0.935801
366.500 0.940428
366.600 0.941006
366.700 0.936958
366.800 0.930596
366.900 0.925969
367.000 0.926836
367.100 0.930307
367.200 0.937536
367.300 0.939850
367.400 0.936090
367.500 0.928571
367.600 0.917582
367.700 0.907461
367.800 0.902256
367.900 0.904858
368.000 0.910931
368.100 0.917582
368.200 0.917004
368.300 0.912955
368.400 0.911799
368.500 0.906593
368.600 0.901677
368.700 0.903702
368.800 0.920474
368.900 0.942741
369.000 0.943320
369.100 0.927704
369.200 0.923944
369.300 0.933777
369.400 0.949104
369.500 0.954309
369.600 0.933777
369.700 0.916136
369.800 0.921631
369.900 0.956912
370.000 0.998554
370.100 1.002603
370.200 0.964141
370.300 0.898207
370.400 0.862927
370.500 0.862059
370.600 0.901677
370.700 0.947368
370.800 0.980914
370.900 0.969346
371.000 0.921920
371.100 0.876518
371.200 0.847600
371.300 0.867843
371.400 0.925969
371.500 1.006362
371.600 1.059283
371.700 1.087623
371.800 1.073453
371.900 1.012724
372.000 0.911510
372.100 0.840659
372.200 0.806536
372.300 0.838924
372.400 0.919607
372.500 1.008965
372.600 1.065645
372.700 1.113071
372.800 1.132157
372.900 1.135338
373.000 1.115963
373.100 1.060150
373.200 0.958647
373.300 0.867553
373.400 0.786003
373.500 0.769520
373.600 0.816368
373.700 0.912666
373.800 1.006073
373.900 1.112493
374.000 1.170908
374.100 1.211105
374.200 1.217756
374.300 1.205610
374.400 1.178716
374.500 1.139387
374.600 1.082128
374.700 1.006940
374.800 0.920474
374.900 0.825043
375.000 0.784847
375.100 0.790341
375.200 0.852516
375.300 0.962695
375.400 1.070272
375.500 1.136784
375.600 1.192597
375.700 1.212840
375.800 1.219780
375.900 1.218913
376.000 1.222094
376.100 1.232215
376.200 1.241469
376.300 1.233661
376.400 1.216021
376.500 1.177559
376.600 1.122325
376.700 1.055813
376.800 0.954309
376.900 0.858589
377.000 0.780509
377.100 0.759109
377.200 0.811163
377.300 0.911799
377.400 0.996530
377.500 1.081261
377.600 1.146327
377.700 1.205610
377.800 1.268652
377.900 1.312608
378.000 1.358300
378.100 1.382013
378.200 1.396183
378.300 1.400810
378.400 1.403123
378.500 1.401099
378.600 1.393291
378.700 1.371024
378.800 1.349335
378.900 1.328514
379.000 1.299595
379.100 1.268652
379.200 1.216888
379.300 1.155870
379.400 1.079815
379.500 0.974841
379.600 0.874783
379.700 0.773569
379.800 0.730480
379.900 0.761134
380.000 0.860902
380.100 0.966744
380.200 1.077501
380.300 1.144014
380.400 1.211394
380.500 1.258531
380.600 1.294101
380.700 1.334008
380.800 1.365529
380.900 1.402834
381.000 1.431752
381.100 1.449682
381.200 1.445055
381.300 1.433488
381.400 1.420474
381.500 1.421631
381.600 1.432331
381.700 1.442163
381.800 1.437247
381.900 1.408329
382.000 1.386350
382.100 1.377386
382.200 1.387218
382.300 1.385483
382.400 1.359746
382.500 1.328224
382.600 1.290920
382.700 1.260555
382.800 1.219491
382.900 1.170330
383.000 1.122036
383.100 1.050318
383.200 0.976576
383.300 0.873626
383.400 0.767785
383.500 0.711394
383.600 0.704164
383.700 0.757374
383.800 0.847021
383.900 0.940139
384.000 1.022267
384.100 1.112493
384.200 1.181029
384.300 1.254193
384.400 1.301909
384.500 1.343551
384.600 1.380278
384.700 1.408039
384.800 1.429728
384.900 1.438982
385.000 1.448236
385.100 1.467322
385.200 1.489011
385.300 1.506073
385.400 1.507808
385.500 1.500868
385.600 1.491903
385.700 1.486987
385.800 1.490746
385.900 1.501157
386.000 1.512435
386.100 1.521400
386.200 1.523424
386.300 1.510700
386.400 1.504627
386.500 1.499422
386.600 1.500000
386.700 1.505495
386.800 1.508965
386.900 1.507230
387.000 1.493638
387.100 1.476287
387.200 1.450839
387.300 1.438404
387.400 1.434066
387.500 1.432042
387.600 1.420474
387.700 1.389532
387.800 1.359167
387.900 1.330249
388.000 1.313187
388.100 1.290630
388.200 1.245228
388.300 1.197513
388.400 1.132447
388.500 1.056680
388.600 0.965009
388.700 0.845286
388.800 0.757953
388.900 0.713418
389.000 0.744072
389.100 0.832273
389.200 0.943320
389.300 1.024291
389.400 1.102660
389.500 1.157895
389.600 1.217467
389.700 1.265761
389.800 1.298438
389.900 1.327646
390.000 1.349046
390.100 1.378832
390.200 1.406015
390.300 1.427415
390.400 1.438693
390.500 1.445055
390.600 1.458647
390.700 1.481781
390.800 1.512724
390.900 1.540486
391.000 1.554656
391.100 1.561307
391.200 1.558704
391.300 1.547426
391.400 1.536148
391.500 1.539040
391.600 1.552053
391.700 1.556391
391.800 1.555813
391.900 1.548294
392.000 1.545402
392.100 1.546559
392.200 1.545980
392.300 1.547715
392.400 1.547715
392.500 1.548872
392.600 1.538751
392.700 1.525448
392.800 1.500000
392.900 1.471660
393.000 1.430596
393.100 1.357143
393.200 1.251591
393.300 1.138519
393.400 1.111336
393.500 1.182186
393.600 1.300463
393.700 1.401388
393.800 1.470503
393.900 1.504916
394.000 1.524870
394.100 1.538462
394.200 1.541353
394.300 1.533256
394.400 1.524291
394.500 1.515327
394.600 1.512724
394.700 1.511857
394.800 1.502313
394.900 1.492192
395.000 1.484673
395.100 1.475419
395.200 1.467033
395.300 1.465298
395.400 1.458936
395.500 1.441296
395.600 1.419607
395.700 1.395894
395.800 1.380278
395.900 1.359167
396.000 1.324465
396.100 1.284847
396.200 1.233083
396.300 1.189416
396.400 1.128109
396.500 1.044534
396.600 0.938982
396.700 0.791498
396.800 0.670908
396.900 0.590515
397.000 0.587912
397.100 0.655292
397.200 0.768363
397.300 0.873337
397.400 0.981781
397.500 1.058994
397.600 1.131001
397.700 1.191151
397.800 1.235107
397.900 1.284268
398.000 1.312898
398.100 1.341527
398.200 1.366108
398.300 1.387218
398.400 1.411220
398.500 1.430885
398.600 1.447947
398.700 1.460093
398.800 1.479179
398.900 1.488143
399.000 1.495662
399.100 1.504916
399.200 1.510121
399.300 1.518219
399.400 1.524870
399.500 1.530075
399.600 1.527183
399.700 1.522267
399.800 1.519086
399.900 1.527473
400.000 1.533256
400.100 1.535281
400.200 1.537016
400.300 1.530364
400.400 1.525448
400.500 1.519954
400.600 1.521400
400.700 1.529208
400.800 1.539907
400.900 1.544534
401.000 1.545980
401.100 1.547426
401.200 1.548583
401.300 1.550318
401.400 1.550318
401.500 1.556391
401.600 1.564777
401.700 1.572585
401.800 1.579815
401.900 1.582707
402.000 1.582996
402.100 1.579526
402.200 1.573453
402.300 1.559861
402.400 1.540197
402.500 1.526027
402.600 1.522846
402.700 1.537883
402.800 1.552921
402.900 1.560729
403.000 1.562464
403.100 1.560440
403.200 1.559861
403.300 1.561018
403.400 1.566512
403.500 1.577791
403.600 1.588780
403.700 1.598323
403.800 1.597744
403.900 1.590226
404.000 1.583864
404.100 1.580393
404.200 1.580393
404.300 1.577212
404.400 1.559861
404.500 1.540197
404.600 1.530943
404.700 1.543956
404.800 1.563331
404.900 1.575477
405.000 1.576345
405.100 1.577501
405.200 1.575188
405.300 1.565934
405.400 1.556391
405.500 1.555813
405.600 1.561018
405.700 1.566223
405.800 1.567380
405.900 1.572874
406.000 1.575766
406.100 1.565645
406.200 1.545980
406.300 1.526316
406.400 1.513592
406.500 1.497976
406.600 1.499422
406.700 1.502024
406.800 1.500289
406.900 1.498843
407.000 1.488433
407.100 1.468190
407.200 1.458357
407.300 1.460960
407.400 1.466455
407.500 1.464430
407.600 1.447079
407.700 1.431752
407.800 1.423366
407.900 1.429728
408.000 1.441006
408.100 1.445055
408.200 1.443320
408.300 1.434355
408.400 1.421920
408.500 1.407461
408.600 1.394737
408.700 1.387507
408.800 1.377386
408.900 1.366397
409.000 1.342394
409.100 1.323019
409.200 1.306246
409.300 1.274147
409.400 1.242047
409.500 1.186524
409.600 1.133025
409.700 1.077791
409.800 1.002603
409.900 0.920185
410.000 0.811163
410.100 0.731348
410.200 0.705610
410.300 0.757374
410.400 0.848178
410.500 0.952574
410.600 1.023135
410.700 1.088201
410.800 1.138809
410.900 1.179005
411.000 1.220648
411.100 1.250434
411.200 1.283690
411.300 1.309138
411.400 1.331695
411.500 1.355119
411.600 1.373048
411.700 1.382880
411.800 1.384615
411.900 1.386350
412.000 1.390688
412.100 1.400810
412.200 1.411220
412.300 1.421342
412.400 1.433198
412.500 1.443320
412.600 1.443320
412.700 1.438404
412.800 1.434066
412.900 1.433198
413.000 1.432331
413.100 1.431752
413.200 1.433488
413.300 1.441585
413.400 1.459514
413.500 1.471082
413.600 1.478600
413.700 1.485252
413.800 1.492481
413.900 1.499711
414.000 1.499132
414.100 1.488143
414.200 1.472817
414.300 1.458068
414.400 1.455755
414.500 1.463852
414.600 1.477444
414.700 1.484095
414.800 1.486408
414.900 1.488143
415.000 1.491324
415.100 1.497108
415.200 1.497108
415.300 1.493927
415.400 1.488722
