# Wavelength (nm)   F_lamA (normalized erg/cm2/s/A)9.100 0.000028
9.400 0.000041
9.600 0.000052
9.800 0.000065
10.000 0.000082
10.200 0.000101
10.400 0.000124
10.600 0.000151
10.800 0.000182
11.000 0.000218
11.400 0.000306
11.800 0.000418
12.100 0.000520
12.500 0.000684
12.700 0.000777
12.800 0.000828
13.100 0.000992
13.200 0.001051
13.400 0.001176
13.700 0.001383
14.000 0.001612
14.300 0.001864
14.700 0.002237
15.100 0.002653
15.500 0.003111
15.900 0.003610
16.200 0.004012
16.600 0.004581
17.000 0.005192
17.300 0.005672
17.700 0.006344
18.000 0.006868
18.200 0.007228
18.600 0.007969
19.100 0.008934
19.400 0.009529
19.800 0.010342
20.200 0.011173
20.500 0.011806
21.000 0.012877
21.600 0.014182
22.000 0.015059
22.300 0.015720
22.700 0.016600
23.000 0.153792
23.400 0.153396
24.000 0.155099
24.600 0.159433
25.200 0.162339
25.700 0.151092
26.000 0.160808
26.400 0.166844
26.900 0.165021
27.400 0.163302
27.900 0.158813
28.400 0.158710
29.000 0.155408
29.600 0.148512
30.100 0.132141
30.800 0.135116
31.800 0.140224
32.800 0.135890
33.800 0.130507
34.800 0.125469
35.700 0.122528
36.600 0.119708
37.500 0.115632
38.500 0.109510
39.500 0.107515
40.500 0.104540
41.400 0.101273
42.200 0.097850
43.000 0.094996
44.100 0.092296
45.100 0.089166
46.000 0.085916
47.000 0.082992
48.000 0.080619
49.000 0.077369
50.000 0.075477
50.600 0.077180
51.200 0.083611
52.000 0.081307
53.000 0.078865
54.000 0.074858
55.000 0.072863
56.000 0.072743
57.000 0.070903
58.000 0.068306
59.000 0.066965
60.000 0.064609
61.000 0.062390
62.000 0.061857
63.000 0.060034
64.000 0.058762
65.000 0.057042
65.800 0.055443
66.500 0.054979
67.500 0.053844
68.500 0.051780
69.500 0.051212
70.500 0.049183
71.600 0.048736
72.600 0.047670
73.500 0.046724
74.500 0.045486
75.500 0.044385
76.500 0.043095
77.500 0.042390
78.500 0.041410
79.500 0.040550
80.500 0.039759
81.500 0.038968
82.500 0.038229
83.500 0.036664
84.500 0.036612
85.500 0.035804
86.500 0.035236
87.500 0.034549
88.500 0.033844
89.500 0.033173
90.500 0.032347
91.500 0.036337
92.500 0.057369
93.500 0.077403
94.500 0.109424
95.500 0.122580
96.500 0.140550
97.500 0.088289
98.500 0.145950
99.500 0.142889
100.500 0.147498
101.500 0.133482
102.500 0.081634
103.500 0.122648
104.500 0.141685
105.500 0.143009
106.500 0.136973
107.500 0.139880
108.500 0.131453
109.500 0.136905
110.500 0.133087
111.500 0.130954
112.500 0.124815
113.500 0.126071
114.500 0.120997
115.500 0.119020
116.500 0.116526
117.500 0.104179
118.500 0.107326
119.500 0.098573
120.500 0.087412
121.500 0.055236
122.500 0.084024
123.500 0.093104
124.500 0.095202
125.500 0.096199
126.500 0.094686
127.500 0.096406
128.500 0.096612
129.500 0.093981
130.500 0.093121
131.500 0.095322
132.500 0.094411
133.500 0.093121
134.500 0.095133
135.500 0.094291
136.500 0.093844
137.500 0.094067
138.500 0.094531
139.500 0.092502
140.500 0.092038
141.500 0.095185
142.500 0.094377
143.500 0.093689
144.200 0.096337
144.700 0.094893
145.500 0.097128
146.500 0.094205
147.500 0.095443
148.500 0.095838
149.500 0.096234
150.500 0.098022
151.200 0.097678
151.700 0.096182
152.500 0.097644
153.500 0.098194
154.500 0.098538
155.500 0.101668
156.500 0.100017
157.500 0.108822
158.500 0.116475
159.500 0.120430
160.500 0.112347
161.500 0.122218
162.500 0.121651
163.500 0.124420
164.500 0.140722
165.500 0.123078
166.500 0.156870
167.200 0.141324
167.700 0.161513
168.500 0.170989
169.500 0.168117
170.500 0.173689
171.500 0.185211
172.500 0.186586
173.500 0.197936
174.500 0.196217
175.500 0.206879
176.500 0.189510
177.500 0.204987
178.500 0.209114
179.500 0.221668
180.500 0.244196
181.500 0.245916
182.500 0.236973
183.500 0.244712
184.500 0.225451
185.500 0.237661
186.500 0.248839
187.500 0.249355
188.500 0.252107
189.500 0.259501
190.500 0.253998
191.500 0.264832
192.500 0.271023
193.500 0.256062
194.500 0.278934
195.500 0.280482
196.700 0.292519
197.600 0.285813
198.400 0.285469
199.500 0.285641
200.500 0.276526
201.500 0.283405
202.500 0.267584
203.500 0.293379
204.500 0.305245
205.500 0.299914
206.500 0.298882
207.400 0.320034
207.800 0.320206
208.500 0.319175
209.500 0.312984
210.500 0.308512
211.500 0.318315
212.500 0.319003
213.500 0.302150
214.500 0.323818
215.500 0.320722
216.500 0.308169
217.500 0.310232
218.500 0.323302
219.500 0.343938
220.500 0.335168
221.500 0.318831
222.500 0.330353
223.500 0.359759
224.500 0.342390
225.500 0.327773
226.500 0.318315
227.500 0.339639
228.500 0.349613
229.500 0.333104
230.500 0.350301
231.500 0.353052
232.500 0.322786
233.500 0.342218
234.500 0.307825
235.500 0.361307
236.500 0.323474
237.500 0.348925
238.500 0.299226
239.500 0.332416
240.500 0.328117
241.500 0.332760
242.500 0.372657
243.500 0.364058
244.500 0.379020
245.500 0.377644
246.500 0.378332
247.500 0.361135
248.500 0.352021
249.500 0.350989
250.500 0.396217
251.300 0.357008
251.800 0.333104
252.500 0.324506
253.500 0.338607
254.500 0.343766
255.500 0.379708
256.500 0.377644
257.500 0.404127
258.500 0.405331
259.500 0.400172
260.500 0.386758
261.500 0.373001
262.500 0.406879
263.500 0.424076
264.500 0.475322
265.500 0.487188
266.500 0.456578
267.500 0.476698
268.500 0.490456
269.500 0.459501
270.500 0.470335
271.500 0.440241
272.500 0.443164
273.500 0.464488
274.500 0.404643
275.500 0.430095
276.500 0.465520
277.500 0.484609
278.500 0.463113
279.500 0.304729
280.500 0.349957
281.500 0.508169
282.500 0.514875
283.500 0.507309
284.500 0.490456
285.500 0.435770
286.500 0.504557
287.500 0.508856
288.500 0.518315
289.500 0.524162
291.000 0.555288
293.000 0.547549
295.000 0.541359
297.000 0.546518
299.000 0.555116
301.000 0.559243
303.000 0.565778
305.000 0.575752
307.000 0.574033
309.000 0.574893
311.000 0.577988
313.000 0.580052
315.000 0.582631
317.000 0.593293
319.000 0.574549
321.000 0.592433
323.000 0.580739
325.000 0.609458
327.000 0.633706
329.000 0.636629
331.000 0.639037
332.200 0.591745
332.300 0.550989
332.400 0.542734
332.500 0.555116
332.600 0.557524
332.700 0.548581
332.800 0.552537
332.900 0.557868
333.000 0.575580
333.100 0.592433
333.200 0.592261
333.300 0.598796
333.400 0.587446
333.500 0.576268
333.600 0.561995
333.700 0.552021
333.800 0.564746
333.900 0.577988
334.000 0.584007
334.100 0.584695
334.200 0.579364
334.300 0.593981
334.400 0.609974
334.500 0.607051
334.600 0.594497
334.700 0.563199
334.800 0.542734
334.900 0.530868
335.000 0.556148
335.100 0.563543
335.200 0.548581
335.300 0.546690
335.400 0.561995
335.500 0.599656
335.600 0.606019
335.700 0.584523
335.800 0.532588
335.900 0.483233
336.000 0.456062
336.100 0.467584
336.200 0.499054
336.300 0.539983
336.400 0.570421
336.500 0.559759
336.600 0.548237
336.700 0.546346
336.800 0.545314
336.900 0.547034
337.000 0.507481
337.100 0.469647
337.200 0.463801
337.300 0.488908
337.400 0.526741
337.500 0.560791
337.600 0.577644
337.700 0.571625
337.800 0.553224
337.900 0.536715
338.000 0.537747
338.100 0.546862
338.200 0.550301
338.300 0.557868
338.400 0.571453
338.500 0.584523
338.600 0.578332
338.700 0.547549
338.800 0.527601
338.900 0.557180
339.000 0.582631
339.100 0.598624
339.200 0.577300
339.300 0.549613
339.400 0.557696
339.500 0.575236
339.600 0.602923
339.700 0.617713
339.800 0.626655
339.900 0.631986
340.000 0.628375
340.100 0.617025
340.200 0.592261
340.300 0.584351
340.400 0.576612
340.500 0.584867
340.600 0.588650
340.700 0.576784
340.800 0.552880
340.900 0.556320
341.000 0.583147
341.100 0.580224
341.200 0.571453
341.300 0.553052
341.400 0.554256
341.500 0.579364
341.600 0.598108
341.700 0.606879
341.800 0.607223
341.900 0.605159
342.000 0.607911
342.100 0.610146
342.200 0.596561
342.300 0.575924
342.400 0.567326
342.500 0.573173
342.600 0.578848
342.700 0.588650
342.800 0.611006
342.900 0.633878
343.000 0.649011
343.100 0.630267
343.200 0.605331
343.300 0.589682
343.400 0.599656
343.500 0.626999
343.600 0.631642
343.700 0.614445
343.800 0.593637
343.900 0.575924
344.000 0.567842
344.100 0.556492
344.200 0.550301
344.300 0.550301
344.400 0.557352
344.500 0.566294
344.600 0.586071
344.700 0.615993
344.800 0.635770
344.900 0.646260
345.000 0.625795
345.100 0.593809
345.200 0.569905
345.300 0.566466
345.400 0.579364
345.500 0.591917
345.600 0.599484
345.700 0.606363
345.800 0.606879
345.900 0.601892
346.000 0.582631
346.100 0.564058
346.200 0.572829
346.300 0.580052
346.400 0.588650
346.500 0.581255
346.600 0.581083
346.700 0.601204
346.800 0.629923
346.900 0.650731
347.000 0.655718
347.100 0.641960
347.200 0.625795
347.300 0.596217
347.400 0.575752
347.500 0.567670
347.600 0.569046
347.700 0.596733
347.800 0.623044
347.900 0.634910
348.000 0.644368
348.100 0.640069
348.200 0.633534
348.300 0.630610
348.400 0.629063
348.500 0.639037
348.600 0.655030
348.700 0.654170
348.800 0.640757
348.900 0.616509
349.000 0.596733
349.100 0.609802
349.200 0.628719
349.300 0.627687
349.400 0.622184
349.500 0.612726
349.600 0.603267
349.700 0.605503
349.800 0.596045
349.900 0.597420
350.000 0.599312
350.100 0.601548
350.200 0.613070
350.300 0.615993
350.400 0.615649
350.500 0.606019
350.600 0.600860
350.700 0.600000
350.800 0.593121
350.900 0.595529
351.000 0.595529
351.100 0.596389
351.200 0.592777
351.300 0.587274
351.400 0.592949
351.500 0.607567
351.600 0.635942
351.700 0.656062
351.800 0.652794
351.900 0.627859
352.000 0.610834
352.100 0.600344
352.200 0.594497
352.300 0.585727
352.400 0.571281
352.500 0.562855
352.600 0.571281
352.700 0.585211
352.800 0.605331
352.900 0.623216
353.000 0.637489
353.100 0.649355
353.200 0.646260
353.300 0.626483
353.400 0.612382
353.500 0.607395
353.600 0.625795
353.700 0.655546
353.800 0.669475
353.900 0.672571
354.000 0.666036
354.100 0.659157
354.200 0.658985
354.300 0.668788
354.400 0.678074
354.500 0.675150
354.600 0.668100
354.700 0.656922
354.800 0.650731
354.900 0.655374
355.000 0.668100
355.100 0.683577
355.200 0.675494
355.300 0.654170
355.400 0.640413
355.500 0.643508
355.600 0.657782
355.700 0.677558
355.800 0.688908
355.900 0.684265
356.000 0.675322
356.100 0.669647
356.200 0.662253
356.300 0.649011
356.400 0.630954
356.500 0.613929
356.600 0.610834
356.700 0.613929
356.800 0.612382
356.900 0.607567
357.000 0.595185
357.100 0.584351
357.200 0.582631
357.300 0.585899
357.400 0.593293
357.500 0.604815
357.600 0.614273
357.700 0.625107
357.800 0.636285
357.900 0.631126
358.000 0.615305
358.100 0.598796
358.200 0.588306
358.300 0.591058
358.400 0.584695
358.500 0.567498
358.600 0.542906
358.700 0.530525
358.800 0.546862
358.900 0.579880
359.000 0.608942
359.100 0.619433
359.200 0.614101
359.300 0.612726
359.400 0.618917
359.500 0.638005
359.600 0.652966
359.700 0.657782
359.800 0.655374
359.900 0.653138
360.000 0.654514
360.100 0.643164
360.200 0.632846
360.300 0.630095
360.400 0.637661
360.500 0.639037
360.600 0.631126
360.700 0.619776
360.800 0.612726
360.900 0.614961
361.000 0.614961
361.100 0.619604
361.200 0.631470
361.300 0.639037
361.400 0.646260
361.500 0.667928
361.600 0.672399
361.700 0.662081
361.800 0.638521
361.900 0.614961
362.000 0.624420
362.100 0.643508
362.200 0.656234
362.300 0.663972
362.400 0.670335
362.500 0.688908
362.600 0.710404
362.700 0.729837
362.800 0.723990
362.900 0.695787
363.000 0.654342
363.100 0.629579
363.200 0.637489
363.300 0.660017
363.400 0.666036
363.500 0.661221
363.600 0.658985
363.700 0.674291
363.800 0.693207
363.900 0.701634
364.000 0.702150
364.100 0.693723
364.200 0.679450
364.300 0.669132
364.400 0.661393
364.500 0.657438
364.600 0.655890
364.700 0.654858
364.800 0.654858
364.900 0.650731
365.000 0.648839
365.100 0.651763
365.200 0.665692
365.300 0.680310
365.400 0.699914
365.500 0.717627
365.600 0.729149
365.700 0.734652
365.800 0.731556
365.900 0.732416
366.000 0.735168
366.100 0.723302
366.200 0.709544
366.300 0.698366
366.400 0.699226
366.500 0.708684
366.600 0.710748
366.700 0.707825
366.800 0.694927
366.900 0.685125
367.000 0.685469
367.100 0.693551
367.200 0.705417
367.300 0.712640
367.400 0.711092
367.500 0.704901
367.600 0.685985
367.700 0.664660
367.800 0.653310
367.900 0.655546
368.000 0.664316
368.100 0.669991
368.200 0.673947
368.300 0.674807
368.400 0.674635
368.500 0.662253
368.600 0.656578
368.700 0.665004
368.800 0.689596
368.900 0.714531
369.000 0.711952
369.100 0.703181
369.200 0.698366
369.300 0.701806
369.400 0.708512
369.500 0.717455
369.600 0.715563
369.700 0.702666
369.800 0.712640
369.900 0.733276
370.000 0.757696
370.100 0.755460
370.200 0.713500
370.300 0.663285
370.400 0.630954
370.500 0.626827
370.600 0.641445
370.700 0.661565
370.800 0.679794
370.900 0.679622
371.000 0.658641
371.100 0.635426
371.200 0.633362
371.300 0.661737
371.400 0.708684
371.500 0.750645
371.600 0.774721
371.700 0.779536
371.800 0.758899
371.900 0.705073
372.000 0.627171
372.100 0.570421
372.200 0.564746
372.300 0.605847
372.400 0.678590
372.500 0.733448
372.600 0.756320
372.700 0.766810
372.800 0.773173
372.900 0.776268
373.000 0.771281
373.100 0.740499
373.200 0.666724
373.300 0.589854
373.400 0.532244
373.500 0.520550
373.600 0.562511
373.700 0.632330
373.800 0.692691
373.900 0.756664
374.000 0.794153
374.100 0.808598
374.200 0.794497
374.300 0.776440
374.400 0.749441
374.500 0.721410
374.600 0.698366
374.700 0.668616
374.800 0.625795
374.900 0.584695
375.000 0.562855
375.100 0.584179
375.200 0.635426
375.300 0.716939
375.400 0.778332
375.500 0.809802
375.600 0.817713
375.700 0.797764
375.800 0.782287
375.900 0.779536
376.000 0.780396
376.100 0.795013
376.200 0.806363
376.300 0.806019
376.400 0.797248
376.500 0.779020
376.600 0.756664
376.700 0.726225
376.800 0.670679
376.900 0.614961
377.000 0.573861
377.100 0.582803
377.200 0.632846
377.300 0.702494
377.400 0.754256
377.500 0.786930
377.600 0.801376
377.700 0.821668
377.800 0.850387
377.900 0.879106
378.000 0.907309
378.100 0.919347
378.200 0.917971
378.300 0.910404
378.400 0.906105
378.500 0.894239
378.600 0.881857
378.700 0.859673
378.800 0.843508
378.900 0.838005
379.000 0.834394
379.100 0.827859
379.200 0.808942
379.300 0.781427
379.400 0.738607
379.500 0.680138
379.600 0.619433
379.700 0.559759
379.800 0.537059
379.900 0.573345
380.000 0.654858
380.100 0.727945
380.200 0.792605
380.300 0.821840
380.400 0.846604
380.500 0.854858
380.600 0.860705
380.700 0.873603
380.800 0.894239
380.900 0.919690
381.000 0.937403
381.100 0.939295
381.200 0.916079
381.300 0.890628
381.400 0.869132
381.500 0.868788
381.600 0.887016
381.700 0.909716
381.800 0.916423
381.900 0.894583
382.000 0.871711
382.100 0.863285
382.200 0.868444
382.300 0.865348
382.400 0.840413
382.500 0.815477
382.600 0.795873
382.700 0.782115
382.800 0.762167
382.900 0.745486
383.000 0.731384
383.100 0.697334
383.200 0.656922
383.300 0.587102
383.400 0.525021
383.500 0.500774
383.600 0.513156
383.700 0.551677
383.800 0.607223
383.900 0.653654
384.000 0.695271
384.100 0.744970
384.200 0.787446
384.300 0.835082
384.400 0.866380
384.500 0.885813
384.600 0.903869
384.700 0.922442
384.800 0.932416
384.900 0.927257
385.000 0.923474
385.100 0.936199
385.200 0.960963
385.300 0.982459
385.400 0.983319
385.500 0.969046
385.600 0.952365
385.700 0.941015
385.800 0.928289
385.900 0.924850
386.000 0.935856
386.100 0.957524
386.200 0.975924
386.300 0.983491
386.400 0.978160
386.500 0.969733
386.600 0.970593
386.700 0.975580
386.800 0.980739
386.900 0.980052
387.000 0.964402
387.100 0.946862
387.200 0.921066
387.300 0.907653
387.400 0.904901
387.500 0.910232
387.600 0.905589
387.700 0.880825
387.800 0.857610
387.900 0.848323
388.000 0.856578
388.100 0.857954
388.200 0.842132
388.300 0.819948
388.400 0.783491
388.500 0.737919
388.600 0.680138
388.700 0.604127
388.800 0.552365
388.900 0.542562
389.000 0.582287
389.100 0.652794
389.200 0.719690
389.300 0.754772
389.400 0.779536
389.500 0.800860
389.600 0.827859
389.700 0.850387
389.800 0.867240
389.900 0.876354
390.000 0.886328
390.100 0.899226
390.200 0.905933
390.300 0.912124
390.400 0.907309
390.500 0.905761
390.600 0.916079
390.700 0.940671
390.800 0.971453
390.900 0.997936
391.000 1.010490
391.100 1.013586
391.200 1.011694
391.300 1.004299
391.400 0.992777
391.500 0.988134
391.600 0.990886
391.700 0.990714
391.800 0.983663
391.900 0.973517
392.000 0.968358
392.100 0.967154
392.200 0.968014
392.300 0.974377
392.400 0.976956
392.500 0.973345
392.600 0.949613
392.700 0.917111
392.800 0.869647
392.900 0.816337
393.000 0.742046
393.100 0.631642
393.200 0.506621
393.300 0.413758
393.400 0.407911
393.500 0.497506
393.600 0.630267
393.700 0.742046
393.800 0.839553
393.900 0.893551
394.000 0.928461
394.100 0.948753
394.200 0.953224
394.300 0.950989
394.400 0.956320
394.500 0.963371
394.600 0.974205
394.700 0.978504
394.800 0.972485
394.900 0.964058
395.000 0.957524
395.100 0.954084
395.200 0.952537
395.300 0.959759
395.400 0.958555
395.500 0.949785
395.600 0.936199
395.700 0.921754
395.800 0.920206
395.900 0.914703
396.000 0.890284
396.100 0.859329
396.200 0.816337
396.300 0.779364
396.400 0.736715
396.500 0.661737
396.600 0.561651
396.700 0.430954
396.800 0.338951
396.900 0.309716
397.000 0.362683
397.100 0.462081
397.200 0.578848
397.300 0.656750
397.400 0.730181
397.500 0.779880
397.600 0.823732
397.700 0.858126
397.800 0.886672
397.900 0.914875
398.000 0.927773
398.100 0.934308
398.200 0.941359
398.300 0.953224
398.400 0.970077
398.500 0.986586
398.600 1.001032
398.700 1.012726
398.800 1.025107
398.900 1.029751
399.000 1.033018
399.100 1.039553
399.200 1.045400
399.300 1.055202
399.400 1.058298
399.500 1.052451
399.600 1.034222
399.700 1.021668
399.800 1.025451
399.900 1.044368
400.000 1.058126
400.100 1.067068
400.200 1.067412
400.300 1.058469
400.400 1.044024
400.500 1.031470
400.600 1.033362
400.700 1.048839
400.800 1.069991
400.900 1.081513
401.000 1.085125
401.100 1.084609
401.200 1.080997
401.300 1.079278
401.400 1.080997
401.500 1.088564
401.600 1.094755
401.700 1.099054
401.800 1.104729
401.900 1.108684
402.000 1.113500
402.100 1.110748
402.200 1.105245
402.300 1.098538
402.400 1.091488
402.500 1.092347
402.600 1.101290
402.700 1.115563
402.800 1.115219
402.900 1.105245
403.000 1.085125
403.100 1.070679
403.200 1.064316
403.300 1.067068
403.400 1.076182
403.500 1.093207
403.600 1.111780
403.700 1.132244
403.800 1.138607
403.900 1.133448
404.000 1.125537
404.100 1.120550
404.200 1.120034
404.300 1.109888
404.400 1.080653
404.500 1.054858
404.600 1.050387
404.700 1.071711
404.800 1.099226
404.900 1.117799
405.000 1.119690
405.100 1.122098
405.200 1.117283
405.300 1.107825
405.400 1.098710
405.500 1.093723
405.600 1.095099
405.700 1.095271
405.800 1.098022
405.900 1.112468
406.000 1.121238
406.100 1.111952
406.200 1.082889
406.300 1.058126
406.400 1.047463
406.500 1.046088
406.600 1.051935
406.700 1.058469
406.800 1.061565
406.900 1.060017
407.000 1.051591
407.100 1.034050
407.200 1.024936
407.300 1.031298
407.400 1.040585
407.500 1.039037
407.600 1.015649
407.700 0.994153
407.800 0.984695
407.900 0.999312
408.000 1.023216
408.100 1.039897
408.200 1.039897
408.300 1.029751
408.400 1.017885
408.500 1.008598
408.600 1.011006
408.700 1.015133
408.800 1.019261
408.900 1.018573
409.000 1.009630
409.100 1.002064
409.200 0.995529
409.300 0.977816
409.400 0.960447
409.500 0.931384
409.600 0.904557
409.700 0.873431
409.800 0.829751
409.900 0.775752
410.000 0.690456
410.100 0.631298
410.200 0.620808
410.300 0.677730
410.400 0.752193
410.500 0.826311
410.600 0.865864
410.700 0.896819
410.800 0.915047
410.900 0.930181
411.000 0.947893
411.100 0.961651
411.200 0.979364
411.300 0.993293
411.400 1.008598
411.500 1.023388
411.600 1.029063
411.700 1.026483
411.800 1.020120
411.900 1.014445
412.000 1.016165
412.100 1.024248
412.200 1.033878
412.300 1.042132
412.400 1.050043
412.500 1.053998
412.600 1.054342
412.700 1.052794
412.800 1.053138
412.900 1.056578
413.000 1.055374
413.100 1.044884
413.200 1.032846
413.300 1.033878
413.400 1.047463
413.500 1.062769
413.600 1.075494
413.700 1.086672
413.800 1.098194
413.900 1.108512
414.000 1.107825
414.100 1.093895
414.200 1.072571
414.300 1.054686
414.400 1.052966
414.500 1.062941
414.600 1.079278
414.700 1.084437
414.800 1.086328
414.900 1.089080
415.000 1.091831
415.100 1.094411
415.200 1.089424
415.300 1.081685
415.400 1.074291
415.500 1.070507
