# Wavelength (nm)   F_lamA (normalized erg/cm2/s/A)9.100 0.000029
9.400 0.000051
9.600 0.000073
9.800 0.000103
10.000 0.000142
10.200 0.000194
10.400 0.000260
10.600 0.000346
10.800 0.000455
11.000 0.000591
11.400 0.000970
11.800 0.001535
12.100 0.002120
12.500 0.003176
12.700 0.003850
12.800 0.004229
13.100 0.005551
13.200 0.006061
13.400 0.007193
13.700 0.009211
14.000 0.011663
14.300 0.014616
14.700 0.019459
15.100 0.025488
15.500 0.032903
15.900 0.041901
16.200 0.049808
16.600 0.062114
17.000 0.076588
17.300 0.089017
17.700 0.107860
18.000 0.123812
18.200 0.135364
18.600 0.160745
19.100 0.197200
19.400 0.221658
19.800 0.257499
20.200 0.297031
20.500 0.329334
21.000 0.388248
21.600 0.467467
22.000 0.525611
22.300 0.572066
22.700 0.637902
23.000 15.751423
23.400 17.658822
24.000 22.719582
24.600 30.718351
25.200 38.686356
25.700 30.764498
26.000 42.962621
26.400 54.253192
26.900 55.929857
27.400 57.083526
27.900 53.499462
28.400 58.806337
29.000 58.775573
29.600 53.130288
30.100 34.702353
30.800 42.870328
31.800 55.114598
32.800 55.283802
33.800 53.760960
34.800 52.407322
35.700 54.053223
36.600 56.391324
37.500 55.314567
38.500 51.238271
39.500 53.868636
40.500 54.745424
41.400 54.083987
42.200 52.438086
43.000 51.222889
44.100 52.099677
45.100 51.438240
46.000 49.653899
47.000 48.807876
48.000 48.746347
49.000 46.792801
50.000 47.285033
50.600 51.099831
51.200 63.728657
52.000 62.036610
53.000 60.375327
54.000 56.283649
55.000 55.391478
56.000 58.683279
57.000 58.129519
58.000 56.114444
59.000 56.006768
60.000 53.884018
61.000 52.299646
62.000 53.899400
63.000 52.545762
64.000 52.299646
65.000 50.992155
65.800 49.484695
66.500 49.930780
67.500 49.638517
68.500 47.392709
69.500 47.915705
70.500 45.531457
71.600 46.546685
72.600 45.931395
73.500 45.377634
74.500 44.300877
75.500 43.454853
76.500 42.147362
77.500 41.993539
78.500 41.224427
79.500 40.701431
80.500 40.193816
81.500 39.701584
82.500 39.224735
83.500 37.071220
84.500 37.901861
85.500 37.194278
86.500 36.902015
87.500 36.379019
88.500 35.794493
89.500 35.209968
90.500 34.410091
91.500 35.040763
92.500 59.929242
93.500 79.480080
94.500 102.968774
95.500 109.475465
96.500 121.904322
97.500 83.894785
98.500 116.628211
99.500 108.783264
100.500 112.844178
101.500 109.460083
102.500 80.033841
103.500 102.876481
104.500 107.414244
105.500 104.891555
106.500 99.477004
107.500 98.954007
108.500 92.139671
109.500 95.846793
110.500 92.554992
111.500 90.616828
112.500 86.325181
113.500 87.186587
114.500 84.494693
115.500 82.710352
116.500 81.064452
117.500 72.311952
118.500 76.695893
119.500 74.280880
120.500 70.496847
121.500 53.161052
122.500 68.189509
123.500 68.943240
124.500 67.651131
125.500 66.835871
126.500 65.528380
127.500 64.590063
128.500 63.359483
129.500 60.944470
130.500 59.960006
131.500 59.575450
132.500 57.960314
133.500 56.452853
134.500 55.929857
135.500 54.791571
136.500 53.361021
137.500 52.176588
138.500 51.345947
139.500 47.561914
140.500 45.762190
141.500 48.377173
142.500 46.992770
143.500 46.546685
144.200 45.916013
144.700 45.439163
145.500 44.593140
146.500 43.747116
147.500 42.947239
148.500 42.285802
149.500 41.378250
150.500 40.532226
151.200 39.870789
151.700 39.532380
152.500 38.886325
153.500 37.332718
154.500 35.517613
155.500 35.056145
156.500 35.409937
157.500 35.179203
158.500 34.717736
159.500 34.133210
160.500 32.979542
161.500 32.348869
162.500 31.841255
163.500 31.195201
164.500 29.918474
165.500 30.579911
166.500 30.133826
167.200 29.410860
167.700 29.795416
168.500 29.318566
169.500 28.749423
170.500 28.149515
171.500 27.365021
172.500 26.995847
173.500 26.888171
174.500 26.349792
175.500 25.919089
176.500 25.426857
177.500 25.088448
178.500 24.734656
179.500 24.334718
180.500 23.996308
181.500 23.504076
182.500 23.150285
183.500 22.811875
184.500 22.211967
185.500 21.796647
186.500 21.535148
187.500 21.304415
188.500 20.735271
189.500 20.304569
190.500 20.243040
191.500 19.766190
192.500 19.335487
193.500 19.258576
194.500 19.073989
195.500 18.535610
196.700 18.412552
197.600 18.274112
198.400 17.920320
199.500 17.520381
200.500 17.397323
201.500 17.181972
202.500 16.982003
203.500 16.628211
204.500 16.382095
205.500 14.005538
206.500 14.634672
207.400 15.828334
207.800 15.674512
208.500 15.582218
209.500 15.317643
210.500 15.166897
211.500 15.031534
212.500 14.837717
213.500 14.602369
214.500 14.353176
215.500 14.268574
216.500 13.940932
217.500 13.850177
218.500 13.557914
219.500 13.491770
220.500 13.288725
221.500 12.984156
222.500 12.894939
223.500 12.731887
224.500 12.558068
225.500 12.248885
226.500 12.208891
227.500 12.047377
228.500 11.882787
229.500 11.608983
230.500 11.429011
231.500 11.387479
232.500 10.970620
233.500 11.067528
234.500 10.906014
235.500 10.789109
236.500 10.624519
237.500 10.492232
238.500 10.193816
239.500 10.203046
240.500 10.072297
241.500 9.940009
242.500 9.832333
243.500 9.689279
244.500 9.573912
245.500 9.450854
246.500 9.324719
247.500 9.204738
248.500 9.092447
249.500 8.734041
250.500 8.852484
251.300 8.458699
251.800 8.689432
252.500 8.623289
253.500 8.514075
254.500 8.400246
255.500 8.317182
256.500 8.211044
257.500 8.121827
258.500 8.021843
259.500 7.917244
260.500 7.820335
261.500 7.720351
262.500 7.635748
263.500 7.543455
264.500 7.480388
265.500 7.389632
266.500 7.288110
267.500 7.203507
268.500 7.137363
269.500 7.023535
270.500 6.965082
271.500 6.875865
272.500 6.771266
273.500 6.623596
274.500 6.617443
275.500 6.545147
276.500 6.454392
277.500 6.415936
278.500 6.335948
279.500 6.215967
280.500 6.168282
281.500 6.128288
282.500 6.034456
283.500 5.968313
284.500 5.917551
285.500 5.848331
286.500 5.789878
287.500 5.723735
288.500 5.662206
289.500 5.597600
291.000 5.509922
293.000 5.386864
295.000 5.249962
297.000 5.156130
299.000 5.043839
301.000 4.919243
303.000 4.796185
305.000 4.677742
307.000 4.563913
309.000 4.453161
311.000 4.345485
313.000 4.239348
315.000 4.139363
317.000 4.042455
319.000 3.927088
321.000 3.830180
323.000 3.765575
325.000 3.680972
327.000 3.597908
329.000 3.517920
331.000 3.442547
332.200 3.431780
332.300 3.447162
332.400 3.428703
332.500 3.414859
332.600 3.397939
332.700 3.387171
332.800 3.371789
332.900 3.370251
333.000 3.365636
333.100 3.362560
333.200 3.351792
333.300 3.328719
333.400 3.310260
333.500 3.291801
333.600 3.274881
333.700 3.271804
333.800 3.267190
333.900 3.257960
334.000 3.236425
334.100 3.244116
334.200 3.264113
334.300 3.325642
334.400 3.362560
334.500 3.393324
334.600 3.414859
334.700 3.422550
334.800 3.381018
334.900 3.311798
335.000 3.187202
335.100 3.165667
335.200 3.188740
335.300 3.196431
335.400 3.188740
335.500 3.174896
335.600 3.177973
335.700 3.188740
335.800 3.204122
335.900 3.214890
336.000 3.214890
336.100 3.207199
336.200 3.211814
336.300 3.204122
336.400 3.201046
336.500 3.168743
336.600 3.141055
336.700 3.117982
336.800 3.111829
336.900 3.121058
337.000 3.142593
337.100 3.139517
337.200 3.105676
337.300 3.099523
337.400 3.113367
337.500 3.141055
337.600 3.153361
337.700 3.128749
337.800 3.125673
337.900 3.134902
338.000 3.167205
338.100 3.194893
338.200 3.194893
338.300 3.181049
338.400 3.167205
338.500 3.188740
338.600 3.217966
338.700 3.234887
338.800 3.228734
338.900 3.197970
339.000 3.191817
339.100 3.190278
339.200 3.213352
339.300 3.230272
339.400 3.268728
339.500 3.265651
339.600 3.236425
339.700 3.199508
339.800 3.168743
339.900 3.097985
340.000 3.054915
340.100 3.056453
340.200 3.041071
340.300 3.028765
340.400 3.041071
340.500 3.053376
340.600 3.050300
340.700 3.056453
340.800 3.067220
340.900 3.073373
341.000 3.073373
341.100 3.039532
341.200 3.039532
341.300 3.064144
341.400 3.091832
341.500 3.108752
341.600 3.102600
341.700 3.097985
341.800 3.102600
341.900 3.110291
342.000 3.107214
342.100 3.107214
342.200 3.104138
342.300 3.113367
342.400 3.113367
342.500 3.102600
342.600 3.101061
342.700 3.102600
342.800 3.124135
342.900 3.130288
343.000 3.107214
343.100 3.097985
343.200 3.085679
343.300 3.084141
343.400 3.088756
343.500 3.107214
343.600 3.113367
343.700 3.105676
343.800 3.082603
343.900 3.061068
344.000 3.017997
344.100 3.004153
344.200 3.008768
344.300 3.033379
344.400 3.050300
344.500 3.024150
344.600 3.007230
344.700 2.999539
344.800 3.019535
344.900 3.042609
345.000 2.982618
345.100 2.936471
345.200 2.918013
345.300 2.919551
345.400 2.933395
345.500 2.933395
345.600 2.933395
345.700 2.928780
345.800 2.921089
345.900 2.911860
346.000 2.904169
346.100 2.904169
346.200 2.924166
346.300 3.008768
346.400 2.965698
346.500 2.954930
346.600 2.965698
346.700 2.962621
346.800 2.951854
346.900 2.954930
347.000 2.961083
347.100 2.919551
347.200 2.911860
347.300 2.945701
347.400 2.944162
347.500 2.930318
347.600 2.902630
347.700 2.847254
347.800 2.794955
347.900 2.785725
348.000 2.813413
348.100 2.853407
348.200 2.841101
348.300 2.810337
348.400 2.821104
348.500 2.876481
348.600 2.893401
348.700 2.904169
348.800 2.941086
348.900 2.953392
349.000 2.934933
349.100 2.928780
349.200 2.950315
349.300 2.945701
349.400 2.938010
349.500 2.921089
349.600 2.887248
349.700 2.890325
349.800 2.910321
349.900 2.918013
350.000 2.884172
350.100 2.824181
350.200 2.827257
350.300 2.841101
350.400 2.822643
350.500 2.790340
350.600 2.779572
350.700 2.791878
350.800 2.807260
350.900 2.805722
351.000 2.804184
351.100 2.804184
351.200 2.793416
351.300 2.779572
351.400 2.788802
351.500 2.798031
351.600 2.816490
351.700 2.801108
351.800 2.798031
351.900 2.810337
352.000 2.814952
352.100 2.810337
352.200 2.802646
352.300 2.798031
352.400 2.821104
352.500 2.788802
352.600 2.782649
352.700 2.785725
352.800 2.794955
352.900 2.813413
353.000 2.818028
353.100 2.825719
353.200 2.839563
353.300 2.822643
353.400 2.791878
353.500 2.787263
353.600 2.793416
353.700 2.771881
353.800 2.767267
353.900 2.771881
354.000 2.793416
354.100 2.808799
354.200 2.804184
354.300 2.793416
354.400 2.798031
354.500 2.802646
354.600 2.785725
354.700 2.790340
354.800 2.804184
354.900 2.807260
355.000 2.788802
355.100 2.773419
355.200 2.779572
355.300 2.790340
355.400 2.793416
355.500 2.779572
355.600 2.764190
355.700 2.771881
355.800 2.781111
355.900 2.778034
356.000 2.768805
356.100 2.781111
356.200 2.794955
356.300 2.784187
356.400 2.768805
356.500 2.774958
356.600 2.785725
356.700 2.758037
356.800 2.762652
356.900 2.750346
357.000 2.714967
357.100 2.653438
357.200 2.636517
357.300 2.642670
357.400 2.633441
357.500 2.633441
357.600 2.645747
357.700 2.645747
357.800 2.639594
357.900 2.627288
358.000 2.636517
358.100 2.648823
358.200 2.647285
358.300 2.641132
358.400 2.633441
358.500 2.625750
358.600 2.616521
358.700 2.607291
358.800 2.598062
358.900 2.596524
359.000 2.619597
359.100 2.631903
359.200 2.622673
359.300 2.621135
359.400 2.622673
359.500 2.616521
359.600 2.608829
359.700 2.610368
359.800 2.610368
359.900 2.618059
360.000 2.641132
360.100 2.638056
360.200 2.645747
360.300 2.631903
360.400 2.618059
360.500 2.618059
360.600 2.619597
360.700 2.619597
360.800 2.630365
360.900 2.641132
361.000 2.636517
361.100 2.604215
361.200 2.601138
361.300 2.593447
361.400 2.578065
361.500 2.581141
361.600 2.602677
361.700 2.619597
361.800 2.631903
361.900 2.636517
362.000 2.613444
362.100 2.608829
362.200 2.630365
362.300 2.630365
362.400 2.619597
362.500 2.618059
362.600 2.634979
362.700 2.641132
362.800 2.625750
362.900 2.613444
363.000 2.625750
363.100 2.634979
363.200 2.622673
363.300 2.604215
363.400 2.619597
363.500 2.614982
363.600 2.562683
363.700 2.539609
363.800 2.545762
363.900 2.547300
364.000 2.556530
364.100 2.571912
364.200 2.578065
364.300 2.554992
364.400 2.525765
364.500 2.524227
364.600 2.530380
364.700 2.534995
364.800 2.542686
364.900 2.550377
365.000 2.548839
365.100 2.534995
365.200 2.528842
365.300 2.525765
365.400 2.518074
365.500 2.522689
365.600 2.525765
365.700 2.518074
365.800 2.513459
365.900 2.508845
366.000 2.498077
366.100 2.490386
366.200 2.487310
366.300 2.498077
366.400 2.504230
366.500 2.495001
366.600 2.487310
366.700 2.475004
366.800 2.470389
366.900 2.478080
367.000 2.481157
367.100 2.476542
367.200 2.470389
367.300 2.465774
367.400 2.464236
367.500 2.461160
367.600 2.470389
367.700 2.453469
367.800 2.444239
367.900 2.444239
368.000 2.448854
368.100 2.461160
368.200 2.462698
368.300 2.455007
368.400 2.442701
368.500 2.435010
368.600 2.425781
368.700 2.427319
368.800 2.445778
368.900 2.471927
369.000 2.465774
369.100 2.436548
369.200 2.442701
369.300 2.461160
369.400 2.461160
369.500 2.448854
369.600 2.416551
369.700 2.396554
369.800 2.399631
369.900 2.447316
370.000 2.501154
370.100 2.493463
370.200 2.428857
370.300 2.333487
370.400 2.291955
370.500 2.290417
370.600 2.356561
370.700 2.424242
370.800 2.467313
370.900 2.441163
371.000 2.370405
371.100 2.296570
371.200 2.253499
371.300 2.278111
371.400 2.355022
371.500 2.468851
371.600 2.518074
371.700 2.533456
371.800 2.522689
371.900 2.438086
372.000 2.295032
372.100 2.224273
372.200 2.191970
372.300 2.242732
372.400 2.321181
372.500 2.413475
372.600 2.455007
372.700 2.507307
372.800 2.531918
372.900 2.538071
373.000 2.522689
373.100 2.458083
373.200 2.339640
373.300 2.224273
373.400 2.128903
373.500 2.119674
373.600 2.184279
373.700 2.316567
373.800 2.413475
373.900 2.524227
374.000 2.576527
374.100 2.605753
374.200 2.601138
374.300 2.571912
374.400 2.553453
374.500 2.525765
374.600 2.456545
374.700 2.345793
374.800 2.224273
374.900 2.075065
375.000 2.041224
375.100 2.087371
375.200 2.195047
375.300 2.287340
375.400 2.391940
375.500 2.451930
375.600 2.501154
375.700 2.502692
375.800 2.488848
375.900 2.473466
376.000 2.456545
376.100 2.441163
376.200 2.493463
376.300 2.519612
376.400 2.501154
376.500 2.459622
376.600 2.388863
376.700 2.311952
376.800 2.196585
376.900 2.064298
377.000 1.959699
377.100 1.935087
377.200 2.027380
377.300 2.171974
377.400 2.284264
377.500 2.373481
377.600 2.428857
377.700 2.464236
377.800 2.495001
377.900 2.507307
378.000 2.522689
378.100 2.533456
378.200 2.541148
378.300 2.527303
378.400 2.516536
378.500 2.531918
378.600 2.534995
378.700 2.521151
378.800 2.507307
378.900 2.493463
379.000 2.470389
379.100 2.444239
379.200 2.415013
379.300 2.373481
379.400 2.296570
379.500 2.173512
379.600 2.030457
379.700 1.890478
379.800 1.836641
379.900 1.902784
380.000 2.071989
380.100 2.205814
380.200 2.310414
380.300 2.368866
380.400 2.407322
380.500 2.442701
380.600 2.433472
380.700 2.445778
380.800 2.470389
380.900 2.491924
381.000 2.514998
381.100 2.524227
381.200 2.508845
381.300 2.490386
381.400 2.479619
381.500 2.471927
381.600 2.461160
381.700 2.447316
381.800 2.411937
381.900 2.373481
382.000 2.355022
382.100 2.362713
382.200 2.419628
382.300 2.444239
382.400 2.439625
382.500 2.422704
382.600 2.396554
382.700 2.399631
382.800 2.391940
382.900 2.350408
383.000 2.298108
383.100 2.225811
383.200 2.130441
383.300 1.996616
383.400 1.821258
383.500 1.741271
383.600 1.748962
383.700 1.870481
383.800 2.011998
383.900 2.151977
384.000 2.230426
384.100 2.296570
384.200 2.339640
384.300 2.388863
384.400 2.431934
384.500 2.461160
384.600 2.453469
384.700 2.450392
384.800 2.444239
384.900 2.450392
385.000 2.447316
385.100 2.462698
385.200 2.471927
385.300 2.465774
385.400 2.444239
385.500 2.422704
385.600 2.405784
385.700 2.402707
385.800 2.419628
385.900 2.450392
386.000 2.462698
386.100 2.467313
386.200 2.439625
386.300 2.393478
386.400 2.385787
386.500 2.382710
386.600 2.381172
386.700 2.393478
386.800 2.404246
386.900 2.402707
387.000 2.387325
387.100 2.364252
387.200 2.347331
387.300 2.351946
387.400 2.368866
387.500 2.384249
387.600 2.376557
387.700 2.359637
387.800 2.353484
387.900 2.355022
388.000 2.362713
388.100 2.339640
388.200 2.301184
388.300 2.261191
388.400 2.219659
388.500 2.136594
388.600 2.015075
388.700 1.838179
388.800 1.687433
388.900 1.625904
389.000 1.713583
389.100 1.882787
389.200 2.058145
389.300 2.164282
389.400 2.236579
389.500 2.279649
389.600 2.310414
389.700 2.335025
389.800 2.347331
389.900 2.353484
390.000 2.359637
390.100 2.376557
390.200 2.391940
390.300 2.402707
390.400 2.405784
390.500 2.402707
390.600 2.388863
390.700 2.396554
390.800 2.424242
390.900 2.433472
391.000 2.421166
391.100 2.421166
391.200 2.419628
391.300 2.399631
391.400 2.393478
391.500 2.405784
391.600 2.410398
391.700 2.408860
391.800 2.395016
391.900 2.365790
392.000 2.356561
392.100 2.353484
392.200 2.339640
392.300 2.313490
392.400 2.307337
392.500 2.318105
392.600 2.313490
392.700 2.321181
392.800 2.325796
392.900 2.328872
393.000 2.319643
393.100 2.261191
393.200 2.090448
393.300 1.842793
393.400 1.867405
393.500 2.087371
393.600 2.239655
393.700 2.302723
393.800 2.330411
393.900 2.342717
394.000 2.359637
394.100 2.368866
394.200 2.367328
394.300 2.347331
394.400 2.338102
394.500 2.313490
394.600 2.302723
394.700 2.307337
394.800 2.310414
394.900 2.310414
395.000 2.307337
395.100 2.299646
395.200 2.291955
395.300 2.288879
395.400 2.282726
395.500 2.271958
395.600 2.258114
395.700 2.245808
395.800 2.244270
395.900 2.245808
396.000 2.241194
396.100 2.227350
396.200 2.195047
396.300 2.147362
396.400 2.087371
396.500 2.021228
396.600 1.918166
396.700 1.684356
396.800 1.433779
396.900 1.338102
397.000 1.385633
397.100 1.519920
397.200 1.702815
397.300 1.847408
397.400 1.962775
397.500 2.042763
397.600 2.101215
397.700 2.133518
397.800 2.147362
397.900 2.176588
398.000 2.190432
398.100 2.199662
398.200 2.199662
398.300 2.195047
398.400 2.202738
398.500 2.215044
398.600 2.185818
398.700 2.136594
398.800 2.202738
398.900 2.224273
399.000 2.239655
399.100 2.250423
399.200 2.251961
399.300 2.245808
399.400 2.227350
399.500 2.224273
399.600 2.216582
399.700 2.216582
399.800 2.224273
399.900 2.233503
400.000 2.216582
400.100 2.202738
400.200 2.202738
400.300 2.199662
400.400 2.201200
400.500 2.201200
400.600 2.199662
400.700 2.195047
400.800 2.190432
400.900 2.178126
401.000 2.173512
401.100 2.190432
401.200 2.199662
401.300 2.208891
401.400 2.215044
401.500 2.218120
401.600 2.218120
401.700 2.225811
401.800 2.235041
401.900 2.242732
402.000 2.238117
402.100 2.224273
402.200 2.211967
402.300 2.175050
402.400 2.110445
402.500 2.042763
402.600 2.024304
402.700 2.061221
402.800 2.133518
402.900 2.173512
403.000 2.210429
403.100 2.215044
403.200 2.216582
403.300 2.213506
403.400 2.213506
403.500 2.216582
403.600 2.218120
403.700 2.218120
403.800 2.218120
403.900 2.213506
404.000 2.215044
404.100 2.224273
404.200 2.216582
404.300 2.207353
404.400 2.199662
404.500 2.190432
404.600 2.187356
404.700 2.202738
404.800 2.215044
404.900 2.218120
405.000 2.211967
405.100 2.210429
405.200 2.216582
405.300 2.207353
405.400 2.205814
405.500 2.211967
405.600 2.211967
405.700 2.213506
405.800 2.219659
405.900 2.221197
406.000 2.215044
406.100 2.195047
406.200 2.181203
406.300 2.182741
406.400 2.141209
406.500 2.042763
406.600 2.071989
406.700 2.113521
406.800 2.115059
406.900 2.102753
407.000 2.087371
407.100 2.081218
407.200 2.088909
407.300 2.084295
407.400 2.088909
407.500 2.085833
407.600 2.070451
407.700 2.059683
407.800 2.065836
407.900 2.087371
408.000 2.102753
408.100 2.107368
408.200 2.102753
408.300 2.099677
408.400 2.079680
408.500 2.073527
408.600 2.067374
408.700 2.076604
408.800 2.084295
408.900 2.081218
409.000 2.064298
409.100 2.053530
409.200 2.050454
409.300 2.028919
409.400 2.001231
409.500 1.958160
409.600 1.912014
409.700 1.862790
409.800 1.767420
409.900 1.652054
410.000 1.512690
410.100 1.389325
410.200 1.367482
410.300 1.466236
410.400 1.628980
410.500 1.782803
410.600 1.867405
410.700 1.913552
410.800 1.952007
410.900 1.967390
411.000 1.982772
411.100 1.999692
411.200 2.015075
411.300 2.027380
411.400 2.044301
411.500 2.062760
411.600 2.071989
411.700 2.059683
411.800 2.033533
411.900 2.016613
412.000 2.007383
412.100 2.013536
412.200 2.018151
412.300 2.031995
412.400 2.045839
412.500 2.055068
412.600 2.050454
412.700 2.030457
412.800 2.007383
412.900 2.004307
413.000 2.010460
413.100 2.019689
413.200 2.024304
413.300 2.030457
413.400 2.044301
413.500 2.056607
413.600 2.056607
413.700 2.056607
413.800 2.062760
413.900 2.061221
414.000 2.059683
414.100 2.055068
