# Wavelength (nm)   F_lamA (normalized erg/cm2/s/A)9.100 0.000001
9.400 0.000003
9.600 0.000005
9.800 0.000008
10.000 0.000012
10.200 0.000018
10.400 0.000027
10.600 0.000040
10.800 0.000057
11.000 0.000082
11.400 0.000160
11.800 0.000298
12.100 0.000460
12.500 0.000791
12.700 0.001022
12.800 0.001158
13.100 0.001664
13.200 0.001868
13.400 0.002345
13.700 0.003249
14.000 0.004429
14.300 0.005949
14.700 0.008625
15.100 0.012223
15.500 0.016953
15.900 0.023080
16.200 0.028740
16.600 0.037931
17.000 0.049306
17.300 0.059445
17.700 0.075381
18.000 0.089325
18.200 0.099657
18.600 0.122956
19.100 0.157439
19.400 0.181344
19.800 0.217063
20.200 0.257453
20.500 0.291111
21.000 0.353757
21.600 0.440170
22.000 0.504877
22.300 0.557357
22.700 0.632642
23.000 20.854513
23.400 22.956450
24.000 29.619453
24.600 40.472592
25.200 49.457343
25.700 38.315703
26.000 54.650364
26.400 68.910565
26.900 70.105784
27.400 71.204836
27.900 68.484682
28.400 71.987910
29.000 71.630719
29.600 65.915648
30.100 45.816733
30.800 56.875944
31.800 70.655310
32.800 70.833906
33.800 69.418876
34.800 68.141228
35.700 69.116637
36.600 69.913450
37.500 68.731969
38.500 65.063882
39.500 66.698722
40.500 66.767413
41.400 65.846957
42.200 64.170903
43.000 63.071851
44.100 63.126803
45.100 62.027751
46.000 60.310482
47.000 59.211430
48.000 58.634428
49.000 56.738563
50.000 56.546229
50.600 59.747218
51.200 69.185328
52.000 67.852727
53.000 66.588817
54.000 63.209232
55.000 62.220085
56.000 63.690067
57.000 62.783349
58.000 60.887485
59.000 60.434126
60.000 58.634428
61.000 56.862206
62.000 57.301827
63.000 55.996703
64.000 55.364748
65.000 54.032147
65.800 52.603380
66.500 52.658332
67.500 51.998901
68.500 50.089298
69.500 50.034345
70.500 48.069790
71.600 48.193433
72.600 47.410359
73.500 46.668498
74.500 45.596923
75.500 44.676467
76.500 43.481247
77.500 43.014150
78.500 42.134909
79.500 41.420525
80.500 40.802308
81.500 40.142877
82.500 39.524660
83.500 37.862344
84.500 38.040940
85.500 37.271603
86.500 36.804506
87.500 36.172551
88.500 35.513120
89.500 34.853689
90.500 34.001923
91.500 36.062646
92.500 52.919357
93.500 66.217887
94.500 82.703668
95.500 86.605303
96.500 95.397719
97.500 70.724001
98.500 91.867015
99.500 86.000824
100.500 88.652287
101.500 85.629894
102.500 64.679214
103.500 80.807803
104.500 82.236571
105.500 80.395659
106.500 77.002335
107.500 75.903283
108.500 71.012502
109.500 73.086962
110.500 70.847644
111.500 69.254018
112.500 66.533865
113.500 66.355269
114.500 64.555571
115.500 63.003160
116.500 61.643083
117.500 56.559967
118.500 58.538261
119.500 56.944635
120.500 54.622888
121.500 42.656958
122.500 52.397307
123.500 52.218711
124.500 51.078445
125.500 50.446490
126.500 49.374914
127.500 48.440720
128.500 47.437835
129.500 45.995329
130.500 45.116087
131.500 44.470394
132.500 43.357604
133.500 42.313505
134.500 41.695288
135.500 40.816046
136.500 39.854376
137.500 38.933919
138.500 38.247012
139.500 36.062646
140.500 34.853689
141.500 35.966479
142.500 35.114714
143.500 34.551449
144.200 34.029400
144.700 33.685946
145.500 33.108944
146.500 32.463250
147.500 31.845034
148.500 31.281769
149.500 30.622338
150.500 30.017860
151.200 29.605715
151.700 29.303476
152.500 28.822640
153.500 27.970875
154.500 26.844347
155.500 26.459679
156.500 26.432202
157.500 26.088748
158.500 25.662866
159.500 25.182030
160.500 24.495123
161.500 24.041764
162.500 23.602143
163.500 22.970188
164.500 21.967303
165.500 22.489353
166.500 22.118423
167.200 21.706278
167.700 21.733755
168.500 21.404039
169.500 21.005633
170.500 20.593488
171.500 20.071438
172.500 19.796675
173.500 19.590603
174.500 19.205935
175.500 18.862481
176.500 18.532765
177.500 18.244264
178.500 17.955763
179.500 17.639786
180.500 17.365023
181.500 17.049045
182.500 16.760544
183.500 16.499519
184.500 16.142327
185.500 15.840088
186.500 15.606539
187.500 15.400467
188.500 15.070751
189.500 14.782250
190.500 14.631131
191.500 14.328891
192.500 14.067866
193.500 13.916747
194.500 13.727160
195.500 13.423547
196.700 13.244951
197.600 13.084215
198.400 12.882264
199.500 12.615744
200.500 12.476989
201.500 12.301140
202.500 12.123918
203.500 11.912351
204.500 11.725512
205.500 9.976645
206.500 10.365435
207.400 11.241929
207.800 11.214453
208.500 11.118285
209.500 10.964418
210.500 10.816046
211.500 10.707515
212.500 10.546778
213.500 10.380547
214.500 10.215689
215.500 10.133260
216.500 9.902459
217.500 9.833768
218.500 9.613958
219.500 9.557632
220.500 9.414755
221.500 9.190823
222.500 9.138618
223.500 9.012227
224.500 8.883088
225.500 8.659156
226.500 8.627559
227.500 8.509411
228.500 8.389889
229.500 8.212667
230.500 8.057425
231.500 8.038192
232.500 7.822503
233.500 7.808765
234.500 7.694738
235.500 7.601319
236.500 7.485918
237.500 7.389751
238.500 7.175436
239.500 7.182305
240.500 7.086138
241.500 6.994093
242.500 6.911664
243.500 6.816870
244.500 6.730320
245.500 6.641022
246.500 6.553098
247.500 6.463800
248.500 6.379997
249.500 6.190411
250.500 6.211018
251.300 5.923891
251.800 6.099739
252.500 6.047534
253.500 5.970600
254.500 5.892293
255.500 5.826350
256.500 5.750790
257.500 5.683473
258.500 5.607913
259.500 5.533727
260.500 5.462289
261.500 5.390850
262.500 5.331776
263.500 5.272702
264.500 5.231488
265.500 5.168292
266.500 5.095480
267.500 5.036406
268.500 4.986949
269.500 4.908641
270.500 4.863305
271.500 4.797362
272.500 4.727298
273.500 4.613271
274.500 4.609150
275.500 4.563814
276.500 4.504740
277.500 4.475890
278.500 4.412694
279.500 4.316527
280.500 4.276686
281.500 4.273939
282.500 4.220360
283.500 4.176398
284.500 4.133810
285.500 4.078857
286.500 4.045885
287.500 3.999176
288.500 3.957961
289.500 3.911252
291.000 3.859047
293.000 3.772496
295.000 3.680451
297.000 3.614507
299.000 3.538948
301.000 3.453771
303.000 3.368595
305.000 3.288913
307.000 3.209232
309.000 3.135046
311.000 3.058112
313.000 2.985300
315.000 2.920731
317.000 2.856162
319.000 2.770985
321.000 2.705042
323.000 2.656958
325.000 2.607501
327.000 2.555296
329.000 2.503091
331.000 2.455008
332.200 2.378074
332.300 2.393186
332.400 2.390438
332.500 2.394560
332.600 2.376700
332.700 2.346476
332.800 2.332738
332.900 2.336859
333.000 2.346476
333.100 2.346476
333.200 2.336859
333.300 2.319000
333.400 2.305262
333.500 2.295645
333.600 2.277785
333.700 2.273664
333.800 2.277785
333.900 2.281907
334.000 2.266795
334.100 2.264047
334.200 2.268169
334.300 2.313505
334.400 2.351971
334.500 2.371205
334.600 2.380822
334.700 2.378074
334.800 2.346476
334.900 2.294271
335.000 2.215964
335.100 2.211842
335.200 2.235197
335.300 2.244814
335.400 2.243440
335.500 2.229702
335.600 2.220085
335.700 2.210468
335.800 2.196730
335.900 2.181618
336.000 2.177497
336.100 2.188487
336.200 2.210468
336.300 2.225580
336.400 2.231076
336.500 2.211842
336.600 2.185740
336.700 2.169254
336.800 2.154142
336.900 2.150021
337.000 2.156890
337.100 2.154142
337.200 2.141778
337.300 2.156890
337.400 2.178871
337.500 2.207721
337.600 2.217338
337.700 2.199478
337.800 2.184366
337.900 2.184366
338.000 2.199478
338.100 2.222833
338.200 2.229702
338.300 2.229702
338.400 2.218711
338.500 2.228328
338.600 2.242066
338.700 2.253057
338.800 2.255804
338.900 2.235197
339.000 2.224207
339.100 2.220085
339.200 2.232450
339.300 2.244814
339.400 2.276412
339.500 2.283281
339.600 2.270916
339.700 2.255804
339.800 2.239319
339.900 2.193983
340.000 2.162385
340.100 2.159637
340.200 2.139030
340.300 2.132161
340.400 2.140404
340.500 2.151394
340.600 2.144525
340.700 2.136282
340.800 2.140404
340.900 2.144525
341.000 2.156890
341.100 2.136282
341.200 2.133535
341.300 2.147273
341.400 2.165133
341.500 2.180245
341.600 2.181618
341.700 2.185740
341.800 2.189861
341.900 2.198104
342.000 2.200852
342.100 2.206347
342.200 2.203599
342.300 2.202226
342.400 2.192609
342.500 2.187114
342.600 2.188487
342.700 2.193983
342.800 2.210468
342.900 2.220085
343.000 2.206347
343.100 2.191235
343.200 2.178871
343.300 2.177497
343.400 2.185740
343.500 2.202226
343.600 2.211842
343.700 2.204973
343.800 2.187114
343.900 2.161011
344.000 2.126666
344.100 2.106059
344.200 2.107432
344.300 2.125292
344.400 2.144525
344.500 2.133535
344.600 2.130787
344.700 2.132161
344.800 2.152768
344.900 2.172002
345.000 2.129413
345.100 2.088199
345.200 2.071713
345.300 2.071713
345.400 2.084077
345.500 2.090947
345.600 2.096442
345.700 2.092320
345.800 2.079956
345.900 2.070339
346.000 2.062096
346.100 2.060723
346.200 2.079956
346.300 2.151394
346.400 2.125292
346.500 2.117049
346.600 2.121170
346.700 2.115675
346.800 2.114301
346.900 2.125292
347.000 2.130787
347.100 2.097816
347.200 2.092320
347.300 2.112928
347.400 2.101937
347.500 2.084077
347.600 2.059349
347.700 2.020882
347.800 1.989284
347.900 1.990658
348.000 2.022256
348.100 2.056601
348.200 2.048358
348.300 2.023630
348.400 2.025003
348.500 2.066218
348.600 2.086825
348.700 2.099189
348.800 2.119797
348.900 2.118423
349.000 2.095068
349.100 2.084077
349.200 2.101937
349.300 2.104685
349.400 2.101937
349.500 2.086825
349.600 2.051106
349.700 2.049732
349.800 2.067592
349.900 2.093694
350.000 2.084077
350.100 2.040115
350.200 2.038742
350.300 2.048358
350.400 2.040115
350.500 2.016761
350.600 2.005770
350.700 2.011265
350.800 2.022256
350.900 2.022256
351.000 2.015387
351.100 2.012639
351.200 2.005770
351.300 1.997527
351.400 2.004396
351.500 2.005770
351.600 2.025003
351.700 2.026377
351.800 2.027751
351.900 2.027751
352.000 2.019508
352.100 2.011265
352.200 2.007144
352.300 2.005770
352.400 2.016761
352.500 1.987910
352.600 1.985163
352.700 1.987910
352.800 2.003022
352.900 2.026377
353.000 2.034620
353.100 2.040115
353.200 2.049732
353.300 2.040115
353.400 2.016761
353.500 2.011265
353.600 2.016761
353.700 2.003022
353.800 2.004396
353.900 2.009891
354.000 2.029125
354.100 2.040115
354.200 2.033246
354.300 2.022256
354.400 2.026377
354.500 2.031873
354.600 2.025003
354.700 2.031873
354.800 2.044237
354.900 2.044237
355.000 2.027751
355.100 2.018134
355.200 2.022256
355.300 2.030499
355.400 2.030499
355.500 2.019508
355.600 2.007144
355.700 2.015387
355.800 2.025003
355.900 2.022256
356.000 2.018134
356.100 2.025003
356.200 2.033246
356.300 2.026377
356.400 2.019508
356.500 2.018134
356.600 2.009891
356.700 1.983789
356.800 1.987910
356.900 1.986537
357.000 1.959060
357.100 1.913724
357.200 1.904108
357.300 1.906855
357.400 1.902734
357.500 1.908229
357.600 1.917846
357.700 1.923341
357.800 1.926089
357.900 1.921967
358.000 1.927463
358.100 1.927463
358.200 1.913724
358.300 1.916472
358.400 1.924715
358.500 1.909603
358.600 1.884874
358.700 1.872510
358.800 1.867015
358.900 1.868389
359.000 1.887622
359.100 1.904108
359.200 1.910977
359.300 1.920593
359.400 1.921967
359.500 1.917846
359.600 1.912351
359.700 1.915098
359.800 1.924715
359.900 1.937079
360.000 1.957686
360.100 1.949444
360.200 1.941201
360.300 1.917846
360.400 1.905482
360.500 1.912351
360.600 1.913724
360.700 1.916472
360.800 1.924715
360.900 1.928836
361.000 1.916472
361.100 1.890370
361.200 1.891743
361.300 1.888996
361.400 1.876631
361.500 1.883500
361.600 1.909603
361.700 1.926089
361.800 1.926089
361.900 1.913724
362.000 1.891743
362.100 1.895865
362.200 1.924715
362.300 1.928836
362.400 1.919220
362.500 1.919220
362.600 1.931584
362.700 1.948070
362.800 1.941201
362.900 1.926089
363.000 1.920593
363.100 1.912351
363.200 1.890370
363.300 1.883500
363.400 1.909603
363.500 1.919220
363.600 1.886248
363.700 1.868389
363.800 1.875258
363.900 1.882127
364.000 1.886248
364.100 1.894491
364.200 1.888996
364.300 1.865641
364.400 1.840912
364.500 1.836791
364.600 1.843660
364.700 1.850529
364.800 1.860146
364.900 1.864267
365.000 1.861519
365.100 1.853277
365.200 1.854650
365.300 1.856024
365.400 1.857398
365.500 1.868389
365.600 1.873884
365.700 1.869762
365.800 1.869762
365.900 1.867015
366.000 1.853277
366.100 1.847781
366.200 1.845034
366.300 1.851903
366.400 1.857398
366.500 1.853277
366.600 1.850529
366.700 1.845034
366.800 1.842286
366.900 1.846407
367.000 1.845034
367.100 1.840912
367.200 1.842286
367.300 1.845034
367.400 1.842286
367.500 1.838165
367.600 1.842286
367.700 1.829922
367.800 1.818931
367.900 1.817557
368.000 1.823053
368.100 1.834043
368.200 1.845034
368.300 1.835417
368.400 1.820305
368.500 1.814810
368.600 1.809314
368.700 1.805193
368.800 1.821679
368.900 1.849155
369.000 1.861519
369.100 1.850529
369.200 1.849155
369.300 1.857398
369.400 1.854650
369.500 1.850529
369.600 1.838165
369.700 1.820305
369.800 1.821679
369.900 1.853277
370.000 1.902734
370.100 1.904108
370.200 1.864267
370.300 1.801072
370.400 1.748867
370.500 1.728259
370.600 1.752988
370.700 1.794203
370.800 1.818931
370.900 1.813436
371.000 1.781838
371.100 1.747493
371.200 1.722764
371.300 1.735128
371.400 1.791455
371.500 1.862893
371.600 1.893117
371.700 1.905482
371.800 1.904108
371.900 1.849155
372.000 1.752988
372.100 1.688419
372.200 1.655447
372.300 1.666438
372.400 1.732381
372.500 1.813436
372.600 1.849155
372.700 1.864267
372.800 1.872510
372.900 1.883500
373.000 1.886248
373.100 1.851903
373.200 1.776343
373.300 1.698035
373.400 1.623849
373.500 1.596373
373.600 1.623849
373.700 1.700783
373.800 1.770848
373.900 1.850529
374.000 1.902734
374.100 1.920593
374.200 1.906855
374.300 1.882127
374.400 1.867015
374.500 1.846407
374.600 1.796950
374.700 1.724138
374.800 1.656821
374.900 1.574392
375.000 1.542794
375.100 1.581261
375.200 1.667812
375.300 1.746119
375.400 1.810688
375.500 1.853277
375.600 1.878005
375.700 1.861519
375.800 1.809314
375.900 1.770848
376.000 1.754362
376.100 1.755736
376.200 1.806567
376.300 1.843660
376.400 1.845034
376.500 1.828548
376.600 1.794203
376.700 1.746119
376.800 1.680176
376.900 1.608737
377.000 1.545542
377.100 1.530430
377.200 1.584009
377.300 1.674681
377.400 1.740624
377.500 1.777717
377.600 1.801072
377.700 1.827174
377.800 1.862893
377.900 1.880753
378.000 1.894491
378.100 1.908229
378.200 1.915098
378.300 1.901360
378.400 1.893117
378.500 1.897239
378.600 1.883500
378.700 1.850529
378.800 1.828548
378.900 1.827174
379.000 1.828548
379.100 1.825800
379.200 1.821679
379.300 1.802445
379.400 1.746119
379.500 1.665064
379.600 1.577140
379.700 1.491963
379.800 1.452123
379.900 1.475477
380.000 1.584009
380.100 1.702157
380.200 1.784586
380.300 1.828548
380.400 1.856024
380.500 1.869762
380.600 1.850529
380.700 1.845034
380.800 1.854650
380.900 1.876631
381.000 1.904108
381.100 1.912351
381.200 1.880753
381.300 1.836791
381.400 1.802445
381.500 1.794203
381.600 1.805193
381.700 1.821679
381.800 1.825800
381.900 1.813436
382.000 1.787333
382.100 1.768100
382.200 1.796950
382.300 1.831296
382.400 1.814810
382.500 1.780464
382.600 1.755736
382.700 1.765352
382.800 1.773595
382.900 1.755736
383.000 1.728259
383.100 1.691166
383.200 1.625223
383.300 1.529056
383.400 1.427394
383.500 1.372441
383.600 1.375189
383.700 1.450749
383.800 1.544168
383.900 1.625223
384.000 1.676054
384.100 1.718643
384.200 1.752988
384.300 1.794203
384.400 1.834043
384.500 1.861519
384.600 1.856024
384.700 1.854650
384.800 1.847781
384.900 1.845034
385.000 1.831296
385.100 1.836791
385.200 1.853277
385.300 1.861519
385.400 1.858772
385.500 1.847781
385.600 1.825800
385.700 1.813436
385.800 1.813436
385.900 1.823053
386.000 1.825800
386.100 1.840912
386.200 1.845034
386.300 1.831296
386.400 1.828548
386.500 1.820305
386.600 1.814810
386.700 1.827174
386.800 1.849155
386.900 1.856024
387.000 1.840912
387.100 1.814810
387.200 1.779091
387.300 1.762605
387.400 1.773595
387.500 1.801072
387.600 1.814810
387.700 1.798324
387.800 1.774969
387.900 1.769474
388.000 1.788707
388.100 1.791455
388.200 1.768100
388.300 1.739250
388.400 1.717269
388.500 1.665064
388.600 1.575766
388.700 1.457618
388.800 1.362275
388.900 1.321061
389.000 1.375189
389.100 1.500206
389.200 1.622476
389.300 1.699409
389.400 1.732381
389.500 1.741998
389.600 1.747493
389.700 1.765352
389.800 1.776343
389.900 1.762605
390.000 1.757109
390.100 1.779091
390.200 1.803819
390.300 1.816184
390.400 1.816184
390.500 1.807941
390.600 1.787333
390.700 1.791455
390.800 1.828548
390.900 1.862893
391.000 1.867015
391.100 1.865641
391.200 1.854650
391.300 1.821679
391.400 1.799698
391.500 1.803819
391.600 1.814810
391.700 1.816184
391.800 1.810688
391.900 1.790081
392.000 1.780464
392.100 1.777717
392.200 1.766726
392.300 1.751614
392.400 1.751614
392.500 1.762605
392.600 1.750240
392.700 1.732381
392.800 1.696662
392.900 1.658195
393.000 1.610111
393.100 1.534551
393.200 1.382058
393.300 1.182992
393.400 1.174749
393.500 1.322022
393.600 1.442506
393.700 1.529056
393.800 1.601868
393.900 1.658195
394.000 1.711774
394.100 1.741998
394.200 1.750240
394.300 1.747493
394.400 1.747493
394.500 1.733755
394.600 1.740624
394.700 1.757109
394.800 1.758483
394.900 1.744745
395.000 1.736502
395.100 1.732381
395.200 1.732381
395.300 1.740624
395.400 1.752988
395.500 1.755736
395.600 1.741998
395.700 1.718643
395.800 1.710400
395.900 1.722764
396.000 1.726886
396.100 1.711774
396.200 1.671933
396.300 1.625223
396.400 1.573018
396.500 1.509823
396.600 1.408160
396.700 1.211018
396.800 1.010029
396.900 0.935293
397.000 0.983239
397.100 1.101662
397.200 1.260475
397.300 1.393048
397.400 1.494711
397.500 1.573018
397.600 1.633466
397.700 1.663690
397.800 1.678802
397.900 1.703531
398.000 1.714521
398.100 1.714521
398.200 1.700783
398.300 1.691166
398.400 1.707652
398.500 1.732381
398.600 1.715895
398.700 1.676054
398.800 1.718643
398.900 1.736502
399.000 1.746119
399.100 1.757109
399.200 1.768100
399.300 1.777717
399.400 1.769474
399.500 1.757109
399.600 1.729633
399.700 1.714521
399.800 1.714521
399.900 1.722764
400.000 1.725512
400.100 1.731007
400.200 1.732381
400.300 1.732381
400.400 1.733755
400.500 1.721390
400.600 1.717269
400.700 1.725512
400.800 1.746119
400.900 1.751614
401.000 1.746119
401.100 1.744745
401.200 1.739250
401.300 1.736502
401.400 1.744745
401.500 1.754362
401.600 1.763979
401.700 1.774969
401.800 1.783212
401.900 1.792829
402.000 1.792829
402.100 1.777717
402.200 1.758483
402.300 1.726886
402.400 1.687045
402.500 1.654073
402.600 1.663690
402.700 1.696662
402.800 1.726886
402.900 1.735128
403.000 1.737876
403.100 1.729633
403.200 1.728259
403.300 1.732381
403.400 1.739250
403.500 1.748867
403.600 1.759857
403.700 1.776343
403.800 1.788707
403.900 1.785960
404.000 1.783212
404.100 1.781838
404.200 1.773595
404.300 1.765352
404.400 1.752988
404.500 1.731007
404.600 1.713147
404.700 1.732381
404.800 1.759857
404.900 1.769474
405.000 1.769474
405.100 1.770848
405.200 1.772221
405.300 1.761231
405.400 1.754362
405.500 1.761231
405.600 1.769474
405.700 1.774969
405.800 1.783212
405.900 1.792829
406.000 1.783212
406.100 1.751614
406.200 1.743371
406.300 1.736502
406.400 1.695288
406.500 1.633466
406.600 1.667812
406.700 1.700783
406.800 1.703531
406.900 1.700783
407.000 1.693914
407.100 1.680176
407.200 1.674681
407.300 1.671933
407.400 1.688419
407.500 1.689793
407.600 1.662316
407.700 1.634840
407.800 1.626597
407.900 1.658195
408.000 1.696662
408.100 1.717269
408.200 1.720016
408.300 1.714521
408.400 1.696662
408.500 1.685671
408.600 1.680176
408.700 1.693914
408.800 1.714521
408.900 1.726886
409.000 1.722764
409.100 1.715895
409.200 1.713147
409.300 1.692540
409.400 1.673307
409.500 1.647204
409.600 1.615607
409.700 1.578514
409.800 1.515318
409.900 1.441132
410.000 1.344553
410.100 1.244676
410.200 1.195494
410.300 1.252507
410.400 1.386179
410.500 1.520813
410.600 1.592252
410.700 1.618354
410.800 1.632092
410.900 1.633466
411.000 1.633466
411.100 1.641709
411.200 1.660942
411.300 1.680176
411.400 1.702157
411.500 1.720016
411.600 1.726886
411.700 1.713147
411.800 1.687045
411.900 1.665064
412.000 1.663690
412.100 1.666438
412.200 1.659569
412.300 1.656821
412.400 1.673307
412.500 1.691166
412.600 1.698035
412.700 1.681550
412.800 1.652700
412.900 1.647204
413.000 1.654073
413.100 1.658195
413.200 1.652700
413.300 1.652700
413.400 1.666438
413.500 1.684297
413.600 1.695288
413.700 1.706278
413.800 1.717269
413.900 1.725512
414.000 1.726886
414.100 1.722764
414.200 1.698035
414.300 1.663690
