# Wavelength (nm)   F_lamA (normalized erg/cm2/s/A)9.100 0.000000
9.400 0.000000
9.600 0.000000
9.800 0.000000
10.000 0.000000
10.200 0.000000
10.400 0.000000
10.600 0.000000
10.800 0.000001
11.000 0.000001
11.400 0.000002
11.800 0.000005
12.100 0.000009
12.500 0.000017
12.700 0.000021
12.800 0.000024
13.100 0.000037
13.200 0.000042
13.400 0.000056
13.700 0.000083
14.000 0.000121
14.300 0.000163
14.700 0.000255
15.100 0.000390
15.500 0.000584
15.900 0.000848
16.200 0.001561
16.600 0.002174
17.000 0.002979
17.300 0.003723
17.700 0.004961
18.000 0.006220
18.200 0.007734
18.600 0.009987
19.100 0.013483
19.400 0.016143
19.800 0.020134
20.200 0.025060
20.500 0.029305
21.000 0.037574
21.600 0.049057
22.000 0.058436
22.300 0.066197
22.700 0.078676
23.000 0.505080
23.400 7.707219
24.000 42.573529
24.600 42.072193
25.200 51.383690
25.700 24.926471
26.000 54.919786
26.400 82.486631
26.900 86.363636
27.400 88.168449
27.900 78.943850
28.400 92.045455
29.000 92.179144
29.600 82.620321
30.100 52.800802
30.800 67.847594
31.800 92.179144
32.800 94.852941
33.800 90.975936
34.800 87.500000
35.700 100.334225
36.600 123.796791
37.500 121.590909
38.500 105.013369
39.500 127.139037
40.500 141.176471
41.400 139.037433
42.200 130.347594
43.000 124.331551
44.100 134.826203
45.100 134.625668
46.000 123.462567
47.000 122.326203
48.000 128.409091
49.000 115.307487
50.000 127.406417
50.600 115.708556
51.200 148.596257
52.000 141.310160
53.000 132.286096
54.000 114.371658
55.000 108.155080
56.000 126.804813
57.000 131.684492
58.000 127.339572
59.000 126.470588
60.000 113.970588
61.000 100.334225
62.000 120.788770
63.000 113.302139
64.000 118.783422
65.000 113.235294
65.800 106.216578
66.500 112.500000
67.500 113.034759
68.500 102.540107
69.500 107.954545
70.500 95.387701
71.600 104.946524
72.600 104.010695
73.500 102.540107
74.500 98.462567
75.500 95.788770
76.500 85.227273
77.500 91.978610
78.500 84.893048
79.500 87.232620
80.500 87.633690
81.500 86.564171
82.500 85.360963
83.500 74.197861
84.500 81.751337
85.500 79.144385
86.500 79.344920
87.500 78.074866
88.500 76.270053
89.500 75.000000
90.500 72.794118
91.500 65.788770
92.500 101.671123
93.500 136.497326
94.500 163.302139
95.500 175.200535
96.500 187.967914
97.500 129.211230
98.500 167.847594
99.500 152.139037
100.500 157.687166
101.500 158.288770
102.500 121.122995
103.500 152.540107
104.500 160.628342
105.500 155.481283
106.500 144.585561
107.500 145.521390
108.500 128.943850
109.500 139.906417
110.500 134.491979
111.500 131.350267
112.500 123.328877
113.500 126.203209
114.500 122.860963
115.500 118.048128
116.500 113.435829
117.500 97.326203
118.500 106.350267
119.500 101.938503
120.500 98.061497
121.500 75.000000
122.500 93.382353
123.500 94.251337
124.500 92.513369
125.500 91.911765
126.500 90.842246
127.500 90.441176
128.500 89.237968
129.500 85.828877
130.500 83.756684
131.500 84.224599
132.500 81.684492
133.500 79.745989
134.500 78.943850
135.500 76.270053
136.500 73.328877
137.500 71.122995
138.500 70.120321
139.500 58.803476
140.500 51.891711
141.500 66.256684
142.500 62.700535
143.500 63.830214
144.200 62.326203
144.700 61.784759
145.500 60.040107
146.500 58.963904
147.500 58.061497
148.500 57.760695
149.500 56.209893
150.500 55.053476
151.200 53.897059
151.700 53.302139
152.500 52.573529
153.500 48.723262
154.500 41.971925
155.500 42.580214
156.500 45.762032
157.500 46.370321
158.500 45.681818
159.500 45.200535
160.500 43.288770
161.500 42.098930
162.500 41.784759
163.500 41.343583
164.500 39.899733
165.500 40.748663
166.500 40.127005
167.200 38.335561
167.700 40.454545
168.500 39.545455
169.500 38.683155
170.500 37.700535
171.500 36.437166
172.500 35.614973
173.500 36.049465
174.500 35.387701
175.500 34.705882
176.500 34.070856
177.500 33.348930
178.500 33.141711
179.500 32.439840
180.500 32.032086
181.500 31.216578
182.500 30.748663
183.500 30.340909
184.500 29.485294
185.500 29.110963
186.500 28.783422
187.500 28.302139
188.500 27.439840
189.500 27.038770
190.500 26.965241
191.500 26.350267
192.500 25.374332
193.500 25.681818
194.500 25.441176
195.500 24.425134
196.700 24.471925
197.600 24.304813
198.400 23.830214
199.500 23.315508
200.500 23.088235
201.500 22.747326
202.500 22.506684
203.500 21.925134
204.500 21.564171
205.500 17.473262
206.500 18.529412
207.400 20.882353
207.800 20.688503
208.500 20.588235
209.500 20.153743
210.500 19.926471
211.500 19.866310
212.500 19.532086
213.500 19.264706
214.500 18.877005
215.500 18.816845
216.500 18.181818
217.500 18.241979
218.500 17.754011
219.500 17.780749
220.500 17.493316
221.500 16.971925
222.500 16.918449
223.500 16.691176
224.500 16.443850
225.500 15.969251
226.500 15.982620
227.500 15.775401
228.500 15.481283
229.500 15.046791
230.500 14.819519
231.500 14.766043
232.500 14.344920
233.500 14.371658
234.500 14.157754
235.500 13.950535
236.500 13.736631
237.500 13.502674
238.500 12.987968
239.500 13.088235
240.500 12.921123
241.500 12.767380
242.500 12.660428
243.500 12.439840
244.500 12.299465
245.500 12.098930
246.500 11.958556
247.500 11.818182
248.500 11.617647
249.500 10.614973
250.500 11.270053
251.300 10.608289
251.800 10.982620
252.500 10.962567
253.500 10.875668
254.500 10.721925
255.500 10.594920
256.500 10.461230
257.500 10.340909
258.500 10.207219
259.500 10.013369
260.500 9.939840
261.500 9.772727
262.500 9.685829
263.500 9.572193
264.500 9.458556
265.500 9.344920
266.500 9.191176
267.500 9.044118
268.500 8.977273
269.500 8.830214
270.500 8.750000
271.500 8.629679
272.500 8.516043
273.500 8.248663
274.500 8.308824
275.500 8.208556
276.500 8.101604
277.500 8.034759
278.500 7.914439
279.500 7.740642
280.500 7.700535
281.500 7.647059
282.500 7.540107
283.500 7.426471
284.500 7.366310
285.500 7.279412
286.500 7.185829
287.500 7.098930
288.500 7.025401
289.500 6.938503
291.000 6.811497
293.000 6.663102
295.000 6.492647
297.000 6.344920
299.000 6.185160
301.000 6.038770
303.000 5.893048
305.000 5.771390
307.000 5.639037
309.000 5.514037
311.000 5.397727
313.000 5.267380
315.000 5.160428
317.000 5.041444
319.000 4.923128
321.000 4.772727
323.000 4.723930
325.000 4.625000
327.000 4.503342
329.000 4.422460
331.000 4.328877
332.200 4.302139
332.300 4.322861
332.400 4.302807
332.500 4.285428
332.600 4.256684
332.700 4.238636
332.800 4.215909
332.900 4.213235
333.000 4.211898
333.100 4.204545
333.200 4.186497
333.300 4.159759
333.400 4.145053
333.500 4.127005
333.600 4.099599
333.700 4.092246
333.800 4.096925
333.900 4.090241
334.000 4.066845
334.100 4.069519
334.200 4.087567
334.300 4.166444
334.400 4.204545
334.500 4.239305
334.600 4.266043
334.700 4.286096
334.800 4.243316
334.900 4.169118
335.000 4.008690
335.100 3.969920
335.200 3.989305
335.300 3.996658
335.400 3.987968
335.500 3.975267
335.600 3.988636
335.700 4.011364
335.800 4.031417
335.900 4.042112
336.000 4.042112
336.100 4.034759
336.200 4.034091
336.300 4.016043
336.400 3.998663
336.500 3.957888
336.600 3.929144
336.700 3.909759
336.800 3.913770
336.900 3.923128
337.000 3.945856
337.100 3.935160
337.200 3.897727
337.300 3.897727
337.400 3.913770
337.500 3.937166
337.600 3.939840
337.700 3.911096
337.800 3.913102
337.900 3.925802
338.000 3.963904
338.100 3.991310
338.200 3.989973
338.300 3.975936
338.400 3.957888
338.500 3.988636
338.600 4.028075
338.700 4.055481
338.800 4.050802
338.900 4.002005
339.000 3.984626
339.100 3.978610
339.200 4.010027
339.300 4.037433
339.400 4.092246
339.500 4.086230
339.600 4.042781
339.700 3.990642
339.800 3.945187
339.900 3.855615
340.000 3.804144
340.100 3.805481
340.200 3.800802
340.300 3.792112
340.400 3.812166
340.500 3.823529
340.600 3.815508
340.700 3.812834
340.800 3.819519
340.900 3.828209
341.000 3.836230
341.100 3.795455
341.200 3.794118
341.300 3.818850
341.400 3.847594
341.500 3.867647
341.600 3.860963
341.700 3.856952
341.800 3.855615
341.900 3.859626
342.000 3.857620
342.100 3.862968
342.200 3.864305
342.300 3.874332
342.400 3.869652
342.500 3.856952
342.600 3.856283
342.700 3.857620
342.800 3.881684
342.900 3.878342
343.000 3.852273
343.100 3.844920
343.200 3.836898
343.300 3.836230
343.400 3.838235
343.500 3.858957
343.600 3.860294
343.700 3.853610
343.800 3.823529
343.900 3.798797
344.000 3.745321
344.100 3.733957
344.200 3.740642
344.300 3.772059
344.400 3.794786
344.500 3.759358
344.600 3.737968
344.700 3.725936
344.800 3.747995
344.900 3.774733
345.000 3.699866
345.100 3.645722
345.200 3.625668
345.300 3.631684
345.400 3.644385
345.500 3.640374
345.600 3.634358
345.700 3.627005
345.800 3.620321
345.900 3.611631
346.000 3.606283
346.100 3.609626
346.200 3.638369
346.300 3.733957
346.400 3.685829
346.500 3.680481
346.600 3.691176
346.700 3.683155
346.800 3.668449
346.900 3.672460
347.000 3.677139
347.100 3.622326
347.200 3.610294
347.300 3.655080
347.400 3.655080
347.500 3.640374
347.600 3.618316
347.700 3.552807
347.800 3.489305
347.900 3.477273
348.000 3.512701
348.100 3.561497
348.200 3.546123
348.300 3.503342
348.400 3.515374
348.500 3.582888
348.600 3.599599
348.700 3.607620
348.800 3.644385
348.900 3.660428
349.000 3.643048
349.100 3.635695
349.200 3.659091
349.300 3.655080
349.400 3.653075
349.500 3.643717
349.600 3.607620
349.700 3.605615
349.800 3.621658
349.900 3.614305
350.000 3.558155
350.100 3.490642
350.200 3.493316
350.300 3.508690
350.400 3.489305
350.500 3.459893
350.600 3.453877
350.700 3.467914
350.800 3.475267
350.900 3.467914
351.000 3.463904
351.100 3.461898
351.200 3.448529
351.300 3.435160
351.400 3.445856
351.500 3.449866
351.600 3.467914
351.700 3.451203
351.800 3.448529
351.900 3.458556
352.000 3.461898
352.100 3.461230
352.200 3.455882
352.300 3.453209
352.400 3.481283
352.500 3.445856
352.600 3.438503
352.700 3.439171
352.800 3.450535
352.900 3.460561
353.000 3.460561
353.100 3.471925
353.200 3.483957
353.300 3.461898
353.400 3.430481
353.500 3.427807
353.600 3.435829
353.700 3.413102
353.800 3.406417
353.900 3.405080
354.000 3.426471
354.100 3.443182
354.200 3.438503
354.300 3.424465
354.400 3.429813
354.500 3.437834
354.600 3.424465
354.700 3.436497
354.800 3.454545
354.900 3.460561
355.000 3.434492
355.100 3.409759
355.200 3.415107
355.300 3.430481
355.400 3.429813
355.500 3.410428
355.600 3.392380
355.700 3.402406
355.800 3.415775
355.900 3.417112
356.000 3.407754
356.100 3.417112
356.200 3.436497
356.300 3.425802
356.400 3.407754
356.500 3.429813
356.600 3.446524
356.700 3.413102
356.800 3.411765
356.900 3.393717
357.000 3.357620
357.100 3.270053
357.200 3.254679
357.300 3.265374
357.400 3.252005
357.500 3.247995
357.600 3.259358
357.700 3.260695
357.800 3.252674
357.900 3.241979
358.000 3.253342
358.100 3.265374
358.200 3.262701
358.300 3.252005
358.400 3.246658
358.500 3.245989
358.600 3.239305
358.700 3.224599
358.800 3.208556
358.900 3.199198
359.000 3.221925
359.100 3.236631
359.200 3.227273
359.300 3.230615
359.400 3.235294
359.500 3.221925
359.600 3.209893
359.700 3.213904
359.800 3.216578
359.900 3.225936
360.000 3.253342
360.100 3.250000
360.200 3.254679
360.300 3.239305
360.400 3.223930
360.500 3.223930
360.600 3.221257
360.700 3.221257
360.800 3.233289
360.900 3.243316
361.000 3.237299
361.100 3.199866
361.200 3.199198
361.300 3.191845
361.400 3.167781
361.500 3.173128
361.600 3.197861
361.700 3.213904
361.800 3.225936
361.900 3.227941
362.000 3.199866
362.100 3.191176
362.200 3.216578
362.300 3.217246
362.400 3.204545
362.500 3.203209
362.600 3.214572
362.700 3.213235
362.800 3.193850
362.900 3.179144
363.000 3.199198
363.100 3.220588
363.200 3.207888
363.300 3.181818
363.400 3.181150
363.500 3.163102
363.600 3.100936
363.700 3.084225
363.800 3.095588
363.900 3.096925
364.000 3.103610
364.100 3.124332
364.200 3.134358
364.300 3.109626
364.400 3.076203
364.500 3.070856
364.600 3.080882
364.700 3.088904
364.800 3.096925
364.900 3.102941
365.000 3.096257
365.100 3.074866
365.200 3.067513
365.300 3.063503
365.400 3.058155
365.500 3.067513
365.600 3.066176
365.700 3.056818
365.800 3.054813
365.900 3.050802
366.000 3.042781
366.100 3.034759
366.200 3.029412
366.300 3.035428
366.400 3.038102
366.500 3.030080
366.600 3.024733
366.700 3.013369
366.800 3.005348
366.900 3.007353
367.000 3.013369
367.100 3.014037
367.200 3.005348
367.300 2.995989
367.400 2.993984
367.500 2.992647
367.600 3.006016
367.700 2.989305
367.800 2.980615
367.900 2.977941
368.000 2.974599
368.100 2.980615
368.200 2.983957
368.300 2.977273
368.400 2.964572
368.500 2.960561
368.600 2.961898
368.700 2.958556
368.800 2.959893
368.900 2.965241
369.000 2.953877
369.100 2.941176
369.200 2.951203
369.300 2.956551
369.400 2.928476
369.500 2.911096
369.600 2.907754
369.700 2.901070
369.800 2.899064
369.900 2.917112
370.000 2.941845
370.100 2.923128
370.200 2.871658
370.300 2.816176
370.400 2.770053
370.500 2.760695
370.600 2.789439
370.700 2.835561
370.800 2.854947
370.900 2.846925
371.000 2.813503
371.100 2.768048
371.200 2.741979
371.300 2.739973
371.400 2.781417
371.500 2.846925
371.600 2.879011
371.700 2.868984
371.800 2.862299
371.900 2.801471
372.000 2.725936
372.100 2.686497
372.200 2.684492
372.300 2.720588
372.400 2.759358
372.500 2.782754
372.600 2.799465
372.700 2.827540
372.800 2.850267
372.900 2.857620
373.000 2.853610
373.100 2.802807
373.200 2.737299
373.300 2.650401
373.400 2.586898
373.500 2.578209
373.600 2.628342
373.700 2.702540
373.800 2.783422
373.900 2.852941
374.000 2.895053
374.100 2.917781
374.200 2.911765
374.300 2.880348
374.400 2.864305
374.500 2.842246
374.600 2.790107
374.700 2.711230
374.800 2.603610
374.900 2.500668
375.000 2.459225
375.100 2.494652
375.200 2.563503
375.300 2.627005
375.400 2.685829
375.500 2.737299
375.600 2.774064
375.700 2.786765
375.800 2.787433
375.900 2.779412
376.000 2.756684
376.100 2.748663
376.200 2.805481
376.300 2.826203
376.400 2.800802
376.500 2.750668
376.600 2.689171
376.700 2.612299
376.800 2.524064
376.900 2.422460
377.000 2.327540
377.100 2.304813
377.200 2.378342
377.300 2.482620
377.400 2.578209
377.500 2.654412
377.600 2.704545
377.700 2.742647
377.800 2.758690
377.900 2.768717
378.000 2.779412
378.100 2.793449
378.200 2.811497
378.300 2.807487
378.400 2.798797
378.500 2.818850
378.600 2.828209
378.700 2.817513
378.800 2.799465
378.900 2.766711
379.000 2.730615
379.100 2.695187
379.200 2.673128
379.300 2.644385
379.400 2.569519
379.500 2.478610
379.600 2.342246
379.700 2.227273
379.800 2.179813
379.900 2.237968
380.000 2.364305
380.100 2.495321
380.200 2.568850
380.300 2.625668
380.400 2.667112
380.500 2.708556
380.600 2.702540
380.700 2.709225
380.800 2.733957
380.900 2.754679
381.000 2.772059
381.100 2.780749
381.200 2.772059
381.300 2.768717
381.400 2.774733
381.500 2.765374
381.600 2.735294
381.700 2.718583
381.800 2.675134
381.900 2.632353
382.000 2.594920
382.100 2.601604
382.200 2.657754
382.300 2.706551
382.400 2.718583
382.500 2.717246
382.600 2.693850
382.700 2.693850
382.800 2.679144
382.900 2.633021
383.000 2.562834
383.100 2.495321
383.200 2.413102
383.300 2.292112
383.400 2.159091
383.500 2.060160
383.600 2.067513
383.700 2.175134
383.800 2.303476
383.900 2.415107
384.000 2.502674
384.100 2.556150
384.200 2.600936
384.300 2.645053
384.400 2.689840
384.500 2.724599
384.600 2.714572
384.700 2.713235
384.800 2.709893
384.900 2.726604
385.000 2.727941
385.100 2.736631
385.200 2.741310
385.300 2.737299
385.400 2.727941
385.500 2.713904
385.600 2.699198
385.700 2.683155
385.800 2.687834
385.900 2.721925
386.000 2.734626
386.100 2.738636
386.200 2.702540
386.300 2.667112
386.400 2.652406
386.500 2.641711
386.600 2.641711
386.700 2.645053
386.800 2.646390
386.900 2.643048
387.000 2.636364
387.100 2.629011
387.200 2.622326
387.300 2.625668
387.400 2.632353
387.500 2.631684
387.600 2.618316
387.700 2.606283
387.800 2.612968
387.900 2.618316
388.000 2.618984
388.100 2.588904
388.200 2.551471
388.300 2.507353
388.400 2.464572
388.500 2.395053
388.600 2.271390
388.700 2.124332
388.800 1.969920
388.900 1.911765
389.000 1.985294
389.100 2.156417
389.200 2.291444
389.300 2.405080
389.400 2.469920
389.500 2.520722
389.600 2.560829
389.700 2.586898
389.800 2.610294
389.900 2.620321
390.000 2.636364
390.100 2.649733
390.200 2.655749
390.300 2.661765
390.400 2.668449
390.500 2.677139
390.600 2.671123
390.700 2.671791
390.800 2.687834
390.900 2.688503
391.000 2.670455
391.100 2.670455
391.200 2.674465
391.300 2.660428
391.400 2.666444
391.500 2.681818
391.600 2.681150
391.700 2.675802
391.800 2.657086
391.900 2.624332
392.000 2.605615
392.100 2.601604
392.200 2.590241
392.300 2.562166
392.400 2.556818
392.500 2.572861
392.600 2.578877
392.700 2.585561
392.800 2.593583
392.900 2.604278
393.000 2.610294
393.100 2.575535
393.200 2.419786
393.300 2.187166
393.400 2.214572
393.500 2.447193
393.600 2.576203
393.700 2.620321
393.800 2.627005
393.900 2.620989
394.000 2.622326
394.100 2.628342
394.200 2.625668
394.300 2.610294
394.400 2.590241
394.500 2.550802
394.600 2.535428
394.700 2.542112
394.800 2.547460
394.900 2.549465
395.000 2.547460
395.100 2.537433
395.200 2.528743
395.300 2.523396
395.400 2.507353
395.500 2.490642
395.600 2.483957
395.700 2.478610
395.800 2.471257
395.900 2.465909
396.000 2.461230
396.100 2.448529
396.200 2.424465
396.300 2.380348
396.400 2.322861
396.500 2.264706
396.600 2.161765
396.700 1.953209
396.800 1.706551
396.900 1.627005
397.000 1.673797
397.100 1.797460
397.200 1.940508
397.300 2.087567
397.400 2.180481
397.500 2.253342
397.600 2.312834
397.700 2.339572
397.800 2.359626
397.900 2.385695
398.000 2.399733
398.100 2.413770
398.200 2.417781
398.300 2.407754
398.400 2.405080
398.500 2.417112
398.600 2.381016
398.700 2.326872
398.800 2.407086
398.900 2.434492
399.000 2.449866
399.100 2.459225
399.200 2.460561
399.300 2.453209
399.400 2.441176
399.500 2.435829
399.600 2.427807
399.700 2.431818
399.800 2.441176
399.900 2.445187
400.000 2.423128
400.100 2.414439
400.200 2.417112
400.300 2.416444
400.400 2.413102
400.500 2.413102
400.600 2.409091
400.700 2.401070
400.800 2.393717
400.900 2.376337
401.000 2.364305
401.100 2.379011
401.200 2.401738
401.300 2.413770
401.400 2.419786
401.500 2.417781
401.600 2.411765
401.700 2.416444
401.800 2.425802
401.900 2.428476
402.000 2.421791
402.100 2.407754
402.200 2.400401
402.300 2.370321
402.400 2.298797
402.500 2.226604
402.600 2.180481
402.700 2.205882
402.800 2.280749
402.900 2.356283
403.000 2.400401
403.100 2.413102
403.200 2.417112
403.300 2.417112
403.400 2.417112
403.500 2.419786
403.600 2.415775
403.700 2.409759
403.800 2.405080
403.900 2.395722
404.000 2.401738
404.100 2.413770
404.200 2.410428
404.300 2.403743
404.400 2.402406
404.500 2.399733
404.600 2.400401
404.700 2.405749
404.800 2.410428
404.900 2.409759
405.000 2.401738
405.100 2.404412
405.200 2.416444
405.300 2.413102
405.400 2.411765
405.500 2.413102
405.600 2.405080
405.700 2.403075
405.800 2.405749
405.900 2.405749
406.000 2.399064
406.100 2.381684
406.200 2.373663
406.300 2.386364
406.400 2.335561
406.500 2.215909
406.600 2.247995
406.700 2.298128
406.800 2.291444
406.900 2.270722
407.000 2.249332
407.100 2.249332
407.200 2.268717
407.300 2.266711
407.400 2.273396
407.500 2.272059
407.600 2.258690
407.700 2.258690
407.800 2.271390
407.900 2.284091
408.000 2.288770
408.100 2.288102
408.200 2.284759
408.300 2.282086
408.400 2.263369
408.500 2.256016
408.600 2.252005
408.700 2.257353
408.800 2.259358
408.900 2.243316
409.000 2.225936
409.100 2.221257
409.200 2.225267
409.300 2.205882
409.400 2.171791
409.500 2.124332
409.600 2.076872
409.700 2.018048
409.800 1.936497
409.900 1.827540
410.000 1.706551
410.100 1.600936
410.200 1.576203
410.300 1.653743
410.400 1.814171
410.500 1.947193
410.600 2.032086
410.700 2.080214
410.800 2.120989
410.900 2.146390
411.000 2.164439
411.100 2.180481
411.200 2.188503
411.300 2.196524
411.400 2.217246
411.500 2.237299
411.600 2.238636
411.700 2.226604
411.800 2.209893
411.900 2.195856
412.000 2.187166
412.100 2.181150
412.200 2.186497
412.300 2.209225
412.400 2.227273
412.500 2.236631
412.600 2.240642
412.700 2.233957
412.800 2.219251
412.900 2.219251
413.000 2.224599
413.100 2.229278
413.200 2.225267
413.300 2.217246
413.400 2.219920
413.500 2.229947
413.600 2.231952
