# Wavelength (nm)   F_lamA (normalized erg/cm2/s/A)9.100 0.000002
9.400 0.000004
9.600 0.000006
9.800 0.000009
10.000 0.000014
10.200 0.000022
10.400 0.000033
10.600 0.000049
10.800 0.000071
11.000 0.000101
11.400 0.000197
11.800 0.000366
12.100 0.000566
12.500 0.000973
12.700 0.001258
12.800 0.001426
13.100 0.002047
13.200 0.002300
13.400 0.002887
13.700 0.003998
14.000 0.005451
14.300 0.007323
14.700 0.010615
15.100 0.015045
15.500 0.020873
15.900 0.028410
16.200 0.035373
16.600 0.046687
17.000 0.060681
17.300 0.073175
17.700 0.092784
18.000 0.109948
18.200 0.122661
18.600 0.151340
19.100 0.193896
19.400 0.223234
19.800 0.267071
20.200 0.316979
20.500 0.358287
21.000 0.435340
21.600 0.541730
22.000 0.621480
22.300 0.686056
22.700 0.778621
23.000 25.661777
23.400 28.190862
24.000 35.896139
24.600 48.120047
25.200 58.472433
25.700 46.535154
26.000 64.660260
26.400 80.711516
26.900 81.891755
27.400 83.122576
27.900 80.239420
28.400 83.780138
29.000 83.291182
29.600 77.339403
30.100 55.842185
30.800 68.217838
31.800 82.785365
32.800 83.004552
33.800 81.335357
34.800 79.834766
35.700 80.930703
36.600 81.655707
37.500 80.323723
38.500 76.192885
39.500 77.862081
40.500 77.811499
41.400 76.681841
42.200 74.742876
43.000 73.461474
44.100 73.309729
45.100 71.960883
46.000 69.954476
47.000 68.555050
48.000 67.762603
49.000 65.537009
50.000 65.115495
50.600 66.868993
51.200 74.709155
52.000 73.292868
53.000 71.876581
54.000 68.487607
55.000 67.189344
56.000 68.285281
57.000 67.189344
58.000 65.233519
59.000 64.525375
60.000 62.620132
61.000 60.664306
62.000 60.782330
63.000 59.315461
64.000 58.556736
65.000 57.073006
65.800 55.572416
66.500 55.488113
67.500 54.628225
68.500 52.672399
69.500 52.419491
70.500 50.413084
71.600 50.278199
72.600 49.384589
73.500 48.524701
74.500 47.361322
75.500 46.332828
76.500 45.051425
77.500 44.461305
78.500 43.466532
79.500 42.657225
80.500 41.965942
81.500 41.190356
82.500 40.465352
83.500 38.863598
84.500 38.846737
85.500 37.986849
86.500 37.430450
87.500 36.722307
88.500 35.997302
89.500 35.272298
90.500 34.378688
91.500 37.194402
92.500 49.856685
93.500 59.989884
94.500 72.517282
95.500 75.332996
96.500 82.077221
97.500 63.193391
98.500 78.991738
99.500 74.034733
100.500 76.024279
101.500 73.444613
102.500 57.073006
103.500 69.398078
104.500 70.055640
105.500 68.470747
106.500 65.806778
107.500 64.693981
108.500 60.613724
109.500 62.114315
110.500 60.259653
111.500 58.860226
112.500 56.685213
113.500 56.314281
114.500 54.847412
115.500 53.431125
116.500 52.217164
117.500 48.440398
118.500 49.620637
119.500 48.305513
120.500 46.484573
121.500 37.312426
122.500 44.427584
123.500 44.107233
124.500 43.146181
125.500 42.589782
126.500 41.662452
127.500 40.836284
128.500 39.959535
129.500 38.829877
130.500 38.054291
131.500 37.413590
132.500 36.503119
133.500 35.660091
134.500 35.069971
135.500 34.294385
136.500 33.485078
137.500 32.692632
138.500 32.119373
139.500 30.399595
140.500 29.337380
141.500 30.180408
142.500 29.455404
143.500 28.966447
144.200 28.511212
144.700 28.207722
145.500 27.735626
146.500 27.179228
147.500 26.656550
148.500 26.184455
149.500 25.628056
150.500 25.122239
151.200 24.785028
151.700 24.532119
152.500 24.127466
153.500 23.469904
154.500 22.525712
155.500 22.205362
156.500 22.137919
157.500 21.800708
158.500 21.429776
159.500 21.025122
160.500 20.485584
161.500 20.097791
162.500 19.709998
163.500 19.153600
164.500 18.344293
165.500 18.748946
166.500 18.428596
167.200 18.091384
167.700 18.091384
168.500 17.804755
169.500 17.484404
170.500 17.147193
171.500 16.707132
172.500 16.476142
173.500 16.277188
174.500 15.968639
175.500 15.675266
176.500 15.398752
177.500 15.154274
178.500 14.901366
179.500 14.640027
180.500 14.400607
181.500 14.142640
182.500 13.899848
183.500 13.668859
184.500 13.402462
185.500 13.152925
186.500 12.947226
187.500 12.753330
188.500 12.503794
189.500 12.277862
190.500 12.119373
191.500 11.888383
192.500 11.669196
193.500 11.522509
194.500 11.357275
195.500 11.127972
196.700 10.954308
197.600 10.809307
198.400 10.652504
199.500 10.441747
200.500 10.308548
201.500 10.153431
202.500 10.000000
203.500 9.833080
204.500 9.676277
205.500 8.231327
206.500 8.516270
207.400 9.248019
207.800 9.249705
208.500 9.168774
209.500 9.050750
210.500 8.915866
211.500 8.821447
212.500 8.684876
213.500 8.544933
214.500 8.411735
215.500 8.340921
216.500 8.147024
217.500 8.093070
218.500 7.905918
219.500 7.862081
220.500 7.742371
221.500 7.553532
222.500 7.513067
223.500 7.410218
224.500 7.300624
225.500 7.111786
226.500 7.086495
227.500 6.988703
228.500 6.889226
229.500 6.750969
230.500 6.612713
231.500 6.599224
232.500 6.445793
233.500 6.408700
234.500 6.310909
235.500 6.235036
236.500 6.137245
237.500 6.059686
238.500 5.877592
239.500 5.886023
240.500 5.806778
241.500 5.730905
242.500 5.666835
243.500 5.587591
244.500 5.516776
245.500 5.442590
246.500 5.370089
247.500 5.295903
248.500 5.226775
249.500 5.085146
250.500 5.090204
251.300 4.847412
251.800 4.995785
252.500 4.950261
253.500 4.887877
254.500 4.825493
255.500 4.771539
256.500 4.707469
257.500 4.653515
258.500 4.591131
259.500 4.528747
260.500 4.468049
261.500 4.407351
262.500 4.361828
263.500 4.316304
264.500 4.287641
265.500 4.237060
266.500 4.174675
267.500 4.127466
268.500 4.085314
269.500 4.021244
270.500 3.984151
271.500 3.926825
272.500 3.872871
273.500 3.775080
274.500 3.766650
275.500 3.732929
276.500 3.690777
277.500 3.665486
278.500 3.611533
279.500 3.520486
280.500 3.490137
281.500 3.501939
282.500 3.463160
283.500 3.427752
284.500 3.388973
285.500 3.341764
286.500 3.318159
287.500 3.281066
288.500 3.247344
289.500 3.210251
291.000 3.171472
293.000 3.100658
295.000 3.026471
297.000 2.972517
299.000 2.913505
301.000 2.846063
303.000 2.778621
305.000 2.716237
307.000 2.653853
309.000 2.596527
311.000 2.534143
313.000 2.475131
315.000 2.426235
317.000 2.375653
319.000 2.306525
321.000 2.252571
323.000 2.215478
325.000 2.178385
327.000 2.139605
329.000 2.099140
331.000 2.062047
332.200 1.991233
332.300 2.004721
332.400 2.006407
332.500 2.014837
332.600 1.997977
332.700 1.965942
332.800 1.952453
332.900 1.957511
333.000 1.971000
333.100 1.972686
333.200 1.965942
333.300 1.950767
333.400 1.937279
333.500 1.928848
333.600 1.913674
333.700 1.910302
333.800 1.915360
333.900 1.920418
334.000 1.906930
334.100 1.901872
334.200 1.903558
334.300 1.942337
334.400 1.981116
334.500 1.996291
334.600 2.001349
334.700 1.992919
334.800 1.964256
334.900 1.917046
335.000 1.858034
335.100 1.863092
335.200 1.885011
335.300 1.895127
335.400 1.895127
335.500 1.881639
335.600 1.868150
335.700 1.852976
335.800 1.832743
335.900 1.810824
336.000 1.805766
336.100 1.820941
336.200 1.846232
336.300 1.868150
336.400 1.878267
336.500 1.863092
336.600 1.839487
336.700 1.822627
336.800 1.804080
336.900 1.797336
337.000 1.800708
337.100 1.800708
337.200 1.792278
337.300 1.812511
337.400 1.834429
337.500 1.861406
337.600 1.871523
337.700 1.858034
337.800 1.839487
337.900 1.836115
338.000 1.846232
338.100 1.868150
338.200 1.876581
338.300 1.879953
338.400 1.869836
338.500 1.874895
338.600 1.885011
338.700 1.891755
338.800 1.898499
338.900 1.881639
339.000 1.871523
339.100 1.866464
339.200 1.873209
339.300 1.883325
339.400 1.908616
339.500 1.920418
339.600 1.913674
339.700 1.905244
339.800 1.895127
339.900 1.859720
340.000 1.834429
340.100 1.829371
340.200 1.807452
340.300 1.800708
340.400 1.805766
340.500 1.817569
340.600 1.810824
340.700 1.800708
340.800 1.804080
340.900 1.807452
341.000 1.820941
341.100 1.804080
341.200 1.800708
341.300 1.812511
341.400 1.827685
341.500 1.839487
341.600 1.842860
341.700 1.849604
341.800 1.854662
341.900 1.863092
342.000 1.864778
342.100 1.869836
342.200 1.868150
342.300 1.864778
342.400 1.854662
342.500 1.849604
342.600 1.851290
342.700 1.858034
342.800 1.873209
342.900 1.885011
343.000 1.873209
343.100 1.856348
343.200 1.842860
343.300 1.841173
343.400 1.851290
343.500 1.868150
343.600 1.878267
343.700 1.873209
343.800 1.856348
343.900 1.831057
344.000 1.799022
344.100 1.778789
344.200 1.778789
344.300 1.793964
344.400 1.810824
344.500 1.805766
344.600 1.807452
344.700 1.810824
344.800 1.831057
344.900 1.847918
345.000 1.814197
345.100 1.775417
345.200 1.760243
345.300 1.760243
345.400 1.772045
345.500 1.780475
345.600 1.787220
345.700 1.783848
345.800 1.770359
345.900 1.760243
346.000 1.751813
346.100 1.750126
346.200 1.766987
346.300 1.829371
346.400 1.810824
346.500 1.804080
346.600 1.805766
346.700 1.800708
346.800 1.802394
346.900 1.814197
347.000 1.820941
347.100 1.793964
347.200 1.787220
347.300 1.800708
347.400 1.785534
347.500 1.768673
347.600 1.746754
347.700 1.718091
347.800 1.694487
347.900 1.699545
348.000 1.728208
348.100 1.758557
348.200 1.751813
348.300 1.731580
348.400 1.731580
348.500 1.765301
348.600 1.785534
348.700 1.795650
348.800 1.810824
348.900 1.805766
349.000 1.782162
349.100 1.770359
349.200 1.785534
349.300 1.788906
349.400 1.788906
349.500 1.773731
349.600 1.740010
349.700 1.738324
349.800 1.756871
349.900 1.785534
350.000 1.783848
350.100 1.746754
350.200 1.745068
350.300 1.753499
350.400 1.745068
350.500 1.726522
350.600 1.716405
350.700 1.719777
350.800 1.729894
350.900 1.731580
351.000 1.723150
351.100 1.719777
351.200 1.716405
351.300 1.709661
351.400 1.713033
351.500 1.713033
351.600 1.731580
351.700 1.736638
351.800 1.741696
351.900 1.738324
352.000 1.726522
352.100 1.716405
352.200 1.713033
352.300 1.713033
352.400 1.719777
352.500 1.694487
352.600 1.692801
352.700 1.694487
352.800 1.711347
352.900 1.736638
353.000 1.745068
353.100 1.750126
353.200 1.756871
353.300 1.748440
353.400 1.728208
353.500 1.723150
353.600 1.728208
353.700 1.718091
353.800 1.721463
353.900 1.726522
354.000 1.743382
354.100 1.751813
354.200 1.743382
354.300 1.736638
354.400 1.740010
354.500 1.745068
354.600 1.741696
354.700 1.746754
354.800 1.758557
354.900 1.756871
355.000 1.743382
355.100 1.736638
355.200 1.740010
355.300 1.745068
355.400 1.745068
355.500 1.736638
355.600 1.726522
355.700 1.734952
355.800 1.740010
355.900 1.738324
356.000 1.734952
356.100 1.740010
356.200 1.746754
356.300 1.741696
356.400 1.736638
356.500 1.731580
356.600 1.719777
356.700 1.692801
356.800 1.697859
356.900 1.699545
357.000 1.677626
357.100 1.638510
357.200 1.631428
357.300 1.634126
357.400 1.631597
357.500 1.638341
357.600 1.646434
357.700 1.651998
357.800 1.658405
357.900 1.657562
358.000 1.661440
358.100 1.658405
358.200 1.642725
358.300 1.647783
358.400 1.658911
358.500 1.642556
358.600 1.613893
358.700 1.601753
358.800 1.598381
358.900 1.601585
359.000 1.617940
359.100 1.635137
359.200 1.645928
359.300 1.656382
359.400 1.657056
359.500 1.654358
359.600 1.650818
359.700 1.654864
359.800 1.666329
359.900 1.678975
360.000 1.694487
360.100 1.686056
360.200 1.674591
360.300 1.650649
360.400 1.639521
360.500 1.646771
360.600 1.649637
360.700 1.651661
360.800 1.658742
360.900 1.659417
361.000 1.646940
361.100 1.624684
361.200 1.627550
361.300 1.626707
361.400 1.616422
361.500 1.624178
361.600 1.649469
361.700 1.666161
361.800 1.661608
361.900 1.644242
362.000 1.625695
362.100 1.632440
362.200 1.659754
362.300 1.665992
362.400 1.658068
362.500 1.656888
362.600 1.668184
362.700 1.685888
362.800 1.683527
362.900 1.668521
363.000 1.657056
363.100 1.643062
363.200 1.621649
363.300 1.620300
363.400 1.648289
363.500 1.659754
363.600 1.634632
363.700 1.619120
363.800 1.626033
363.900 1.632440
364.000 1.635475
364.100 1.639015
364.200 1.630416
364.300 1.609004
364.400 1.587591
364.500 1.584050
364.600 1.589951
364.700 1.596021
364.800 1.604957
364.900 1.607317
365.000 1.605969
365.100 1.600910
365.200 1.604114
365.300 1.608161
365.400 1.611364
365.500 1.622661
365.600 1.628562
365.700 1.626370
365.800 1.627213
365.900 1.623841
366.000 1.610521
366.100 1.604957
366.200 1.603777
366.300 1.609004
366.400 1.613556
366.500 1.611195
366.600 1.609847
366.700 1.606306
366.800 1.603945
366.900 1.608835
367.000 1.605463
367.100 1.600910
367.200 1.605969
367.300 1.611195
367.400 1.609004
367.500 1.603777
367.600 1.604957
367.700 1.594335
367.800 1.583544
367.900 1.581689
368.000 1.588434
368.100 1.600742
368.200 1.612207
368.300 1.603440
368.400 1.587928
368.500 1.581858
368.600 1.575451
368.700 1.572248
368.800 1.590120
368.900 1.619963
369.000 1.635643
369.100 1.628225
369.200 1.624515
369.300 1.632946
369.400 1.635812
369.500 1.633957
369.600 1.620132
369.700 1.601585
369.800 1.603102
369.900 1.636318
370.000 1.687742
370.100 1.692801
370.200 1.656888
370.300 1.596864
370.400 1.542404
370.500 1.519474
370.600 1.540550
370.700 1.579666
370.800 1.604957
370.900 1.600405
371.000 1.572922
371.100 1.543416
371.200 1.521666
371.300 1.532457
371.400 1.588096
371.500 1.655539
371.600 1.685550
371.700 1.701231
371.800 1.701231
371.900 1.649975
372.000 1.559265
372.100 1.493003
372.200 1.455404
372.300 1.456753
372.400 1.525375
372.500 1.615748
372.600 1.653347
372.700 1.664643
372.800 1.669364
372.900 1.680492
373.000 1.684539
373.100 1.653347
373.200 1.582195
373.300 1.507334
373.400 1.435340
373.500 1.401956
373.600 1.424886
373.700 1.495363
373.800 1.562637
373.900 1.643399
374.000 1.696173
374.100 1.713033
374.200 1.696173
374.300 1.673411
374.400 1.658574
374.500 1.637161
374.600 1.589108
374.700 1.522509
374.800 1.463328
374.900 1.392008
375.000 1.362334
375.100 1.400438
375.200 1.486259
375.300 1.565840
375.400 1.625864
375.500 1.665992
375.600 1.687742
375.700 1.666329
375.800 1.605126
375.900 1.559602
376.000 1.544259
376.100 1.550329
376.200 1.599730
376.300 1.639015
376.400 1.646603
376.500 1.635475
376.600 1.608329
376.700 1.566009
376.800 1.506154
376.900 1.445962
377.000 1.389648
377.100 1.374642
377.200 1.422863
377.300 1.505480
377.400 1.562974
377.500 1.591469
377.600 1.609172
377.700 1.637498
377.800 1.677120
377.900 1.697859
378.000 1.714719
378.100 1.728208
378.200 1.733266
378.300 1.719777
378.400 1.711347
378.500 1.713033
378.600 1.692801
378.700 1.655370
378.800 1.631765
378.900 1.634632
379.000 1.643568
379.100 1.646097
379.200 1.645591
379.300 1.628225
379.400 1.574608
379.500 1.499241
379.600 1.420840
379.700 1.346485
379.800 1.307031
379.900 1.322374
380.000 1.420840
380.100 1.536840
380.200 1.618951
380.300 1.663632
380.400 1.689428
380.500 1.701231
380.600 1.680155
380.700 1.671556
380.800 1.678638
380.900 1.701231
381.000 1.729894
381.100 1.738324
381.200 1.699545
381.300 1.647951
381.400 1.606306
381.500 1.599393
381.600 1.616422
381.700 1.644074
381.800 1.657731
381.900 1.649469
382.000 1.621312
382.100 1.596190
382.200 1.619794
382.300 1.653515
382.400 1.632103
382.500 1.592986
382.600 1.568538
382.700 1.578655
382.800 1.589108
382.900 1.577643
383.000 1.556567
383.100 1.524869
383.200 1.464003
383.300 1.373799
383.400 1.286630
383.500 1.238914
383.600 1.239420
383.700 1.305345
383.800 1.388636
383.900 1.459450
384.000 1.504468
384.100 1.546114
384.200 1.581015
384.300 1.621312
384.400 1.659079
384.500 1.685213
384.600 1.682684
384.700 1.681841
384.800 1.675603
384.900 1.669364
385.000 1.652841
385.100 1.658911
385.200 1.676277
385.300 1.687742
385.400 1.689428
385.500 1.678638
385.600 1.655707
385.700 1.643230
385.800 1.641882
385.900 1.645760
386.000 1.644917
386.100 1.661777
386.200 1.672568
386.300 1.666161
386.400 1.667172
386.500 1.660091
386.600 1.654190
386.700 1.667678
386.800 1.691114
386.900 1.701231
387.000 1.686056
387.100 1.657899
387.200 1.616591
387.300 1.593998
387.400 1.606306
387.500 1.637498
387.600 1.655539
387.700 1.636992
387.800 1.607655
387.900 1.599730
388.000 1.622998
388.100 1.630585
388.200 1.610015
388.300 1.582870
388.400 1.563143
388.500 1.515765
388.600 1.432811
388.700 1.326083
388.800 1.244984
388.900 1.208902
389.000 1.253077
389.100 1.367054
389.200 1.478671
389.300 1.549654
389.400 1.576294
389.500 1.578486
389.600 1.579160
389.700 1.597033
389.800 1.606643
389.900 1.589277
390.000 1.579835
390.100 1.603608
390.200 1.632440
390.300 1.645928
390.400 1.643736
390.500 1.635137
390.600 1.613724
390.700 1.618951
390.800 1.660091
390.900 1.701231
391.000 1.711347
391.100 1.709661
391.200 1.692801
391.300 1.655033
391.400 1.626539
391.500 1.630585
391.600 1.643230
391.700 1.648120
391.800 1.644579
391.900 1.627213
392.000 1.616928
392.100 1.614568
392.200 1.605969
392.300 1.594841
392.400 1.596864
392.500 1.606474
392.600 1.592143
392.700 1.566852
392.800 1.520991
392.900 1.471084
393.000 1.413421
393.100 1.330804
393.200 1.187489
393.300 1.008767
393.400 0.992413
393.500 1.113472
393.600 1.226437
393.700 1.318159
393.800 1.402124
393.900 1.470916
394.000 1.532625
394.100 1.566852
394.200 1.578317
394.300 1.578655
394.400 1.580678
394.500 1.572248
394.600 1.583713
394.700 1.603102
394.800 1.602765
394.900 1.586073
395.000 1.575114
395.100 1.572079
395.200 1.573934
395.300 1.587928
395.400 1.604451
395.500 1.611027
395.600 1.594841
395.700 1.569044
395.800 1.561120
395.900 1.574439
396.000 1.579329
396.100 1.561288
396.200 1.517788
396.300 1.472433
396.400 1.422189
396.500 1.356601
396.600 1.254932
396.700 1.070646
396.800 0.888046
396.900 0.816220
397.000 0.857697
397.100 0.969820
397.200 1.123251
397.300 1.252234
397.400 1.353060
397.500 1.431293
397.600 1.492834
397.700 1.524701
397.800 1.541055
397.900 1.566515
398.000 1.578317
398.100 1.575788
398.200 1.558253
398.300 1.549486
398.400 1.569550
398.500 1.598213
398.600 1.587928
398.700 1.551846
398.800 1.584219
398.900 1.598044
399.000 1.607486
399.100 1.618614
399.200 1.632103
399.300 1.645422
399.400 1.642387
399.500 1.627550
399.600 1.595178
399.700 1.576125
399.800 1.573428
399.900 1.581521
400.000 1.589951
400.100 1.598381
400.200 1.599899
400.300 1.599393
400.400 1.600573
400.500 1.585399
400.600 1.582195
400.700 1.595852
400.800 1.621312
400.900 1.631597
401.000 1.625527
401.100 1.619457
401.200 1.609341
401.300 1.603608
401.400 1.612544
401.500 1.623166
401.600 1.636486
401.700 1.648120
401.800 1.656719
401.900 1.666835
402.000 1.668353
402.100 1.653010
402.200 1.630754
402.300 1.601416
402.400 1.566515
402.500 1.544428
402.600 1.562637
402.700 1.595515
402.800 1.610690
402.900 1.611195
403.000 1.605631
403.100 1.593323
403.200 1.591974
403.300 1.598550
403.400 1.606643
403.500 1.617940
403.600 1.630416
403.700 1.651661
403.800 1.667341
403.900 1.665149
404.000 1.661777
404.100 1.657731
404.200 1.649300
404.300 1.641376
404.400 1.626033
404.500 1.600405
404.600 1.578317
404.700 1.600573
404.800 1.630416
404.900 1.642725
405.000 1.644411
405.100 1.645760
405.200 1.643230
405.300 1.630585
405.400 1.624009
405.500 1.631765
405.600 1.642556
405.700 1.649132
405.800 1.658236
405.900 1.669870
406.000 1.659417
406.100 1.624347
406.200 1.617602
406.300 1.607486
406.400 1.569381
406.500 1.523352
406.600 1.555556
406.700 1.583544
406.800 1.587591
406.900 1.589951
407.000 1.583881
407.100 1.567527
407.200 1.557579
407.300 1.557410
407.400 1.576631
407.500 1.577643
407.600 1.546619
407.700 1.513067
407.800 1.500927
407.900 1.534986
408.000 1.579835
408.100 1.604283
408.200 1.608498
408.300 1.602091
408.400 1.585736
408.500 1.573091
408.600 1.567527
408.700 1.582701
408.800 1.606137
408.900 1.621143
409.000 1.620132
409.100 1.613219
409.200 1.610690
409.300 1.589782
409.400 1.572248
409.500 1.549654
409.600 1.521160
409.700 1.485753
409.800 1.429101
409.900 1.364188
410.000 1.274659
410.100 1.178216
410.200 1.124094
410.300 1.172146
410.400 1.298095
410.500 1.429270
410.600 1.498061
410.700 1.521160
410.800 1.529084
410.900 1.526218
411.000 1.524026
411.100 1.532794
411.200 1.554881
411.300 1.575788
411.400 1.599224
411.500 1.616759
411.600 1.623166
411.700 1.610352
411.800 1.586242
411.900 1.563986
412.000 1.563311
412.100 1.565335
412.200 1.552858
412.300 1.545608
412.400 1.562468
412.500 1.584050
412.600 1.592143
412.700 1.573091
412.800 1.542236
412.900 1.535154
413.000 1.542236
413.100 1.546114
413.200 1.540044
413.300 1.541561
413.400 1.557410
413.500 1.576631
413.600 1.590626
413.700 1.602765
413.800 1.614230
413.900 1.624347
414.000 1.627887
414.100 1.622155
414.200 1.599056
414.300 1.561963
414.400 1.542067
