# Wavelength (nm)   F_lamA (normalized erg/cm2/s/A)9.100 0.000008
9.400 0.000014
9.600 0.000020
9.800 0.000028
10.000 0.000039
10.200 0.000053
10.400 0.000071
10.600 0.000095
10.800 0.000124
11.000 0.000162
11.400 0.000265
11.800 0.000419
12.100 0.000579
12.500 0.000868
12.700 0.001052
12.800 0.001155
13.100 0.001516
13.200 0.001655
13.400 0.001965
13.700 0.002516
14.000 0.003185
14.300 0.003992
14.700 0.005315
15.100 0.006958
15.500 0.008983
15.900 0.011440
16.200 0.013603
16.600 0.016963
17.000 0.020916
17.300 0.024312
17.700 0.029457
18.000 0.033815
18.200 0.036967
18.600 0.043916
19.100 0.053843
19.400 0.060515
19.800 0.070318
20.200 0.081132
20.500 0.089968
21.000 0.106029
21.600 0.127658
22.000 0.143534
22.300 0.156236
22.700 0.174183
23.000 4.300966
23.400 4.818224
24.000 6.203405
24.600 8.389324
25.200 10.561436
25.700 8.398527
26.000 11.730327
26.400 14.809020
26.900 15.273815
27.400 15.586746
27.900 14.606535
28.400 16.056144
29.000 16.046940
29.600 14.505292
30.100 9.475380
30.800 11.702715
31.800 15.048320
32.800 15.094340
33.800 14.680166
34.800 14.312011
35.700 14.763000
36.600 15.398067
37.500 15.103543
38.500 13.989876
39.500 14.712379
40.500 14.951680
41.400 14.772204
42.200 14.325817
43.000 13.989876
44.100 14.233778
45.100 14.054303
46.000 13.571100
47.000 13.341003
48.000 13.322595
49.000 12.793373
50.000 12.926829
50.600 14.049701
51.200 17.662218
52.000 17.192821
53.000 16.737230
54.000 15.595950
55.000 15.379659
56.000 16.300046
57.000 16.161988
58.000 15.595950
59.000 15.586746
60.000 14.997699
61.000 14.578923
62.000 15.034514
63.000 14.670962
64.000 14.606535
65.000 14.252186
65.800 13.842614
66.500 13.976070
67.500 13.902439
68.500 13.276576
69.500 13.451450
70.500 12.784169
71.600 13.092499
72.600 12.926829
73.500 12.788771
74.500 12.498850
75.500 12.273355
76.500 11.919006
77.500 11.882191
78.500 11.688909
79.500 11.550851
80.500 11.417395
81.500 11.293143
82.500 11.168891
83.500 10.561436
84.500 10.823746
85.500 10.635067
86.500 10.566038
87.500 10.432582
88.500 10.280718
89.500 10.128854
90.500 9.912563
91.500 10.230097
92.500 19.470778
93.500 27.630005
94.500 39.783709
95.500 45.140359
96.500 52.139899
97.500 30.874367
98.500 53.152324
99.500 50.759319
100.500 53.060285
101.500 49.102623
102.500 29.737690
103.500 44.914864
104.500 51.633686
105.500 50.805338
106.500 47.537966
107.500 48.320295
108.500 44.721583
109.500 47.077773
110.500 45.232398
111.500 44.463875
112.500 42.061666
113.500 42.931431
114.500 41.191901
115.500 40.874367
116.500 40.257708
117.500 35.370456
118.500 37.965946
119.500 35.614358
120.500 32.029452
121.500 20.280718
122.500 30.998619
123.500 33.773585
124.500 33.741371
125.500 33.382421
126.500 32.567879
127.500 32.618500
128.500 32.121491
129.500 30.556834
130.500 30.082835
131.500 30.363553
132.500 29.470778
133.500 28.536585
134.500 28.587207
135.500 28.104004
136.500 27.312471
137.500 26.815462
138.500 26.461114
139.500 24.666360
140.500 24.104924
141.500 24.988495
142.500 24.376438
143.500 24.127934
144.200 23.911643
144.700 23.676944
145.500 23.267372
146.500 22.779567
147.500 22.397607
148.500 22.038656
149.500 21.615278
150.500 21.127474
151.200 20.708698
151.700 20.635067
152.500 20.299126
153.500 19.433962
154.500 18.877128
155.500 18.476760
156.500 18.582605
157.500 18.527382
158.500 18.324896
159.500 18.099402
160.500 17.468937
161.500 17.174413
162.500 16.916705
163.500 16.686608
164.500 16.148182
165.500 16.231017
166.500 16.143580
167.200 15.687989
167.700 15.922688
168.500 15.724804
169.500 15.398067
170.500 15.066728
171.500 14.689370
172.500 14.477681
173.500 14.454671
174.500 14.160147
175.500 14.022089
176.500 13.612517
177.500 13.543488
178.500 13.377819
179.500 13.230557
180.500 13.064887
181.500 12.774965
182.500 12.618500
183.500 12.425219
184.500 12.034054
185.500 11.794754
186.500 11.702715
187.500 11.670502
188.500 11.283939
189.500 11.003221
190.500 11.076852
191.500 10.777727
192.500 10.561436
193.500 10.561436
194.500 10.524620
195.500 10.161068
196.700 10.188679
197.600 10.151864
198.400 9.921767
199.500 9.673263
200.500 9.659457
201.500 9.558214
202.500 9.493787
203.500 9.282098
204.500 9.162448
205.500 8.297285
206.500 8.485964
207.400 8.904740
207.800 8.766682
208.500 8.734468
209.500 8.559595
210.500 8.522780
211.500 8.449149
212.500 8.370916
213.500 8.228256
214.500 8.104004
215.500 8.057984
216.500 7.892315
217.500 7.823286
218.500 7.699034
219.500 7.666820
220.500 7.542568
221.500 7.395306
222.500 7.312471
223.500 7.261850
224.500 7.160607
225.500 7.008744
226.500 6.971928
227.500 6.898297
228.500 6.824666
229.500 6.663599
230.500 6.599172
231.500 6.543948
232.500 6.157386
233.500 6.364473
234.500 6.249425
235.500 6.221813
236.500 6.106765
237.500 6.060746
238.500 5.899678
239.500 5.908882
240.500 5.826047
241.500 5.761620
242.500 5.724804
243.500 5.628164
244.500 5.582145
245.500 5.522319
246.500 5.444087
247.500 5.379659
248.500 5.333640
249.500 5.149563
250.500 5.218592
251.300 5.048320
251.800 5.126553
252.500 5.066728
253.500 4.997699
254.500 4.942476
255.500 4.924068
256.500 4.859641
257.500 4.827428
258.500 4.776806
259.500 4.716981
260.500 4.657156
261.500 4.601933
262.500 4.560976
263.500 4.514036
264.500 4.511275
265.500 4.461574
266.500 4.394386
267.500 4.358030
268.500 4.327197
269.500 4.253566
270.500 4.227335
271.500 4.171652
272.500 4.108145
273.500 4.065347
274.500 4.008744
275.500 3.972849
276.500 3.935113
277.500 3.930051
278.500 3.883571
279.500 3.773585
280.500 3.771744
281.500 3.777727
282.500 3.720663
283.500 3.677865
284.500 3.650713
285.500 3.612517
286.500 3.588587
287.500 3.549471
288.500 3.518178
289.500 3.484123
291.000 3.442246
293.000 3.367694
295.000 3.289001
297.000 3.242062
299.000 3.179936
301.000 3.115509
303.000 3.049701
305.000 2.985274
307.000 2.921307
309.000 2.860561
311.000 2.801657
313.000 2.741832
315.000 2.687529
317.000 2.634607
319.000 2.563737
321.000 2.522780
323.000 2.478141
325.000 2.433962
327.000 2.391164
329.000 2.344225
331.000 2.302807
332.200 2.303267
332.300 2.317533
332.400 2.302807
332.500 2.293143
332.600 2.278877
332.700 2.269673
332.800 2.266912
332.900 2.268753
333.000 2.269673
333.100 2.269213
333.200 2.259549
333.300 2.239761
333.400 2.225495
333.500 2.215831
333.600 2.209388
333.700 2.196503
333.800 2.173953
333.900 2.166130
334.000 2.155545
334.100 2.175794
334.200 2.191440
334.300 2.227796
334.400 2.253106
334.500 2.270594
334.600 2.290842
334.700 2.297285
334.800 2.267372
334.900 2.212149
335.000 2.126553
335.100 2.123792
335.200 2.152784
335.300 2.168891
335.400 2.162908
335.500 2.140819
335.600 2.139899
335.700 2.149103
335.800 2.158767
335.900 2.161528
336.000 2.169811
336.100 2.161068
336.200 2.167510
336.300 2.158767
336.400 2.154165
336.500 2.133456
336.600 2.111827
336.700 2.093419
336.800 2.085136
336.900 2.095720
337.000 2.127934
337.100 2.131155
337.200 2.103543
337.300 2.092039
337.400 2.098481
337.500 2.134376
337.600 2.149563
337.700 2.116429
337.800 2.101703
337.900 2.095260
338.000 2.118730
338.100 2.143120
338.200 2.161528
338.300 2.165209
338.400 2.158767
338.500 2.162448
338.600 2.167050
338.700 2.163829
338.800 2.158767
338.900 2.151864
339.000 2.156926
339.100 2.163829
339.200 2.170732
339.300 2.172112
339.400 2.188219
339.500 2.191440
339.600 2.185918
339.700 2.161068
339.800 2.138518
339.900 2.094340
340.000 2.067648
340.100 2.083295
340.200 2.068109
340.300 2.057984
340.400 2.057064
340.500 2.062586
340.600 2.054763
340.700 2.063507
340.800 2.077312
340.900 2.086977
341.000 2.088357
341.100 2.058445
341.200 2.063507
341.300 2.085136
341.400 2.109986
341.500 2.118730
341.600 2.117809
341.700 2.116889
341.800 2.122872
341.900 2.130235
342.000 2.127474
342.100 2.122411
342.200 2.112747
342.300 2.110446
342.400 2.111367
342.500 2.106765
342.600 2.115509
342.700 2.120571
342.800 2.128394
342.900 2.128854
343.000 2.108145
343.100 2.109526
343.200 2.107685
343.300 2.115048
343.400 2.118270
343.500 2.119190
343.600 2.122411
343.700 2.117809
343.800 2.117809
343.900 2.107225
344.000 2.076852
344.100 2.059365
344.200 2.054303
344.300 2.069489
344.400 2.078233
344.500 2.068109
344.600 2.067188
344.700 2.069949
344.800 2.089738
344.900 2.103543
345.000 2.057524
345.100 2.016107
345.200 1.995858
345.300 1.990796
345.400 1.999080
345.500 2.000000
345.600 2.002761
345.700 2.004602
345.800 1.998619
345.900 1.995398
346.000 1.988955
346.100 1.985734
346.200 1.993097
346.300 2.028992
346.400 2.011505
346.500 2.014266
346.600 2.021169
346.700 2.019328
346.800 2.011965
346.900 2.005983
347.000 2.016107
347.100 2.006443
347.200 2.001841
347.300 2.005522
347.400 2.009664
347.500 2.004142
347.600 1.996318
347.700 1.967326
347.800 1.938794
347.900 1.922227
348.000 1.933732
348.100 1.953981
348.200 1.942016
348.300 1.922227
348.400 1.924528
348.500 1.958122
348.600 1.984814
348.700 2.000460
348.800 2.021629
348.900 2.021629
349.000 2.009664
349.100 2.005522
349.200 2.021169
349.300 2.024390
349.400 2.012885
349.500 1.997699
349.600 1.988495
349.700 1.994938
349.800 2.005062
349.900 1.994938
350.000 1.958583
350.100 1.939715
350.200 1.949379
350.300 1.957202
350.400 1.941555
350.500 1.919926
350.600 1.910723
350.700 1.915324
350.800 1.931891
350.900 1.937874
351.000 1.942016
351.100 1.942016
351.200 1.935573
351.300 1.921767
351.400 1.921767
351.500 1.933732
351.600 1.942936
351.700 1.939715
351.800 1.941095
351.900 1.946157
352.000 1.948919
352.100 1.942016
352.200 1.933732
352.300 1.936033
352.400 1.948458
352.500 1.946618
352.600 1.941555
352.700 1.936493
352.800 1.937414
352.900 1.946618
353.000 1.956742
353.100 1.964565
353.200 1.975150
353.300 1.966866
353.400 1.948458
353.500 1.942936
353.600 1.943396
353.700 1.932812
353.800 1.932352
353.900 1.932812
354.000 1.941095
354.100 1.945237
354.200 1.947078
354.300 1.947998
354.400 1.953981
354.500 1.956282
354.600 1.954441
354.700 1.959963
354.800 1.963645
354.900 1.958583
355.000 1.952140
355.100 1.951220
355.200 1.958122
355.300 1.960423
355.400 1.951220
355.500 1.943856
355.600 1.939715
355.700 1.943856
355.800 1.945237
355.900 1.940175
356.000 1.931431
356.100 1.937874
356.200 1.945237
356.300 1.941555
356.400 1.928210
356.500 1.920847
356.600 1.922227
356.700 1.916705
356.800 1.924988
356.900 1.918546
357.000 1.897837
357.100 1.853659
357.200 1.832029
357.300 1.831109
357.400 1.830649
357.500 1.832950
357.600 1.844455
357.700 1.842154
357.800 1.834791
357.900 1.829728
358.000 1.833410
358.100 1.840773
358.200 1.838472
358.300 1.831569
358.400 1.828348
358.500 1.822365
358.600 1.816383
358.700 1.811321
358.800 1.803958
358.900 1.810400
359.000 1.823286
359.100 1.823746
359.200 1.816383
359.300 1.815923
359.400 1.819604
359.500 1.822365
359.600 1.821445
359.700 1.826047
359.800 1.832490
359.900 1.835711
360.000 1.842154
360.100 1.839853
360.200 1.844915
360.300 1.839393
360.400 1.832029
360.500 1.828808
360.600 1.830189
360.700 1.832950
360.800 1.839393
360.900 1.846756
361.000 1.850897
361.100 1.841233
361.200 1.836631
361.300 1.830189
361.400 1.823286
361.500 1.819604
361.600 1.827888
361.700 1.835711
361.800 1.847676
361.900 1.859181
362.000 1.850437
362.100 1.848596
362.200 1.863783
362.300 1.867004
362.400 1.860561
362.500 1.860561
362.600 1.869765
362.700 1.878049
362.800 1.875748
362.900 1.864243
363.000 1.861022
363.100 1.859641
363.200 1.857340
363.300 1.858260
363.400 1.873907
363.500 1.868385
363.600 1.830189
363.700 1.815002
363.800 1.817303
363.900 1.820985
364.000 1.823746
364.100 1.827428
364.200 1.832029
364.300 1.826047
364.400 1.814542
364.500 1.813622
364.600 1.805338
364.700 1.806259
364.800 1.809480
364.900 1.809940
365.000 1.810861
365.100 1.807639
365.200 1.805338
365.300 1.803958
365.400 1.803037
365.500 1.803037
365.600 1.808560
365.700 1.805798
365.800 1.799816
365.900 1.793833
366.000 1.783709
366.100 1.784630
366.200 1.782329
366.300 1.789231
366.400 1.791072
366.500 1.784630
366.600 1.782789
366.700 1.776346
366.800 1.774045
366.900 1.780028
367.000 1.785550
367.100 1.784630
367.200 1.780948
367.300 1.771284
367.400 1.765301
367.500 1.755637
367.600 1.756098
367.700 1.751956
367.800 1.747814
367.900 1.748734
368.000 1.752416
368.100 1.763461
368.200 1.759779
368.300 1.756098
368.400 1.756558
368.500 1.748274
368.600 1.732628
368.700 1.732168
368.800 1.757018
368.900 1.788311
369.000 1.781408
369.100 1.744133
369.200 1.747354
369.300 1.774505
369.400 1.803037
369.500 1.795674
369.600 1.748734
369.700 1.725725
369.800 1.729406
369.900 1.785090
370.000 1.843534
370.100 1.849517
370.200 1.794754
370.300 1.690750
370.400 1.642430
370.500 1.641970
370.600 1.715601
370.700 1.788311
370.800 1.849057
370.900 1.821905
371.000 1.743212
371.100 1.658076
371.200 1.611597
371.300 1.638748
371.400 1.717441
371.500 1.844455
371.600 1.915324
371.700 1.952600
371.800 1.940635
371.900 1.860561
372.000 1.711919
372.100 1.625863
372.200 1.573401
372.300 1.619880
372.400 1.716521
372.500 1.843534
372.600 1.900138
372.700 1.969167
372.800 1.997699
372.900 2.005522
373.000 1.980672
373.100 1.903359
373.200 1.763921
373.300 1.641509
373.400 1.536585
373.500 1.523240
373.600 1.593189
373.700 1.739531
373.800 1.850897
373.900 1.982513
374.000 2.046940
374.100 2.089738
374.200 2.098942
374.300 2.083755
374.400 2.057984
374.500 2.014266
374.600 1.935113
374.700 1.820064
374.800 1.692131
374.900 1.531983
375.000 1.485044
375.100 1.515416
375.200 1.626783
375.300 1.742752
375.400 1.877589
375.500 1.947538
375.600 2.017027
375.700 2.032214
375.800 2.029452
375.900 2.015647
376.000 2.002301
376.100 1.999540
376.200 2.035895
376.300 2.044639
376.400 2.026231
376.500 1.979291
376.600 1.907041
376.700 1.828808
376.800 1.700874
376.900 1.555453
377.000 1.446848
377.100 1.407731
377.200 1.495628
377.300 1.642430
377.400 1.765762
377.500 1.875288
377.600 1.957662
377.700 2.013806
377.800 2.068109
377.900 2.096641
378.000 2.127474
378.100 2.143120
378.200 2.154165
378.300 2.148182
378.400 2.143580
378.500 2.149103
378.600 2.144040
378.700 2.134376
378.800 2.123332
378.900 2.102623
379.000 2.071790
379.100 2.034054
379.200 1.982052
379.300 1.919466
379.400 1.841233
379.500 1.704096
379.600 1.563737
379.700 1.419696
379.800 1.352508
379.900 1.406811
380.000 1.562816
380.100 1.699034
380.200 1.833410
380.300 1.912563
380.400 1.976070
380.500 2.028072
380.600 2.051081
380.700 2.078233
380.800 2.103543
380.900 2.131155
381.000 2.155085
381.100 2.167971
381.200 2.158767
381.300 2.138978
381.400 2.122411
381.500 2.119650
381.600 2.116429
381.700 2.108145
381.800 2.082375
381.900 2.045099
382.000 2.023010
382.100 2.029452
382.200 2.070410
382.300 2.081454
382.400 2.071330
382.500 2.049241
382.600 2.017948
382.700 2.000460
382.800 1.970548
382.900 1.923148
383.000 1.869305
383.100 1.788771
383.200 1.691671
383.300 1.555913
383.400 1.379659
383.500 1.302347
383.600 1.299586
383.700 1.399908
383.800 1.536585
383.900 1.684307
384.000 1.781408
384.100 1.878049
384.200 1.935573
384.300 1.995858
384.400 2.033134
384.500 2.063507
384.600 2.080994
384.700 2.092039
384.800 2.096641
384.900 2.098942
385.000 2.104924
385.100 2.124252
385.200 2.135757
385.300 2.130695
385.400 2.113208
385.500 2.096180
385.600 2.085136
385.700 2.091578
385.800 2.113208
385.900 2.132075
386.000 2.142660
386.100 2.137138
386.200 2.110446
386.300 2.064427
386.400 2.061206
386.500 2.068569
386.600 2.072711
386.700 2.084215
386.800 2.092039
386.900 2.092499
387.000 2.086056
387.100 2.068569
387.200 2.049241
387.300 2.045559
387.400 2.056144
387.500 2.066728
387.600 2.057064
387.700 2.036815
387.800 2.021629
387.900 2.009204
388.000 1.998619
388.100 1.967326
388.200 1.919466
388.300 1.874367
388.400 1.816843
388.500 1.727105
388.600 1.609296
388.700 1.439945
388.800 1.299126
388.900 1.234699
389.000 1.289462
389.100 1.428900
389.200 1.603313
389.300 1.719282
389.400 1.814542
389.500 1.873447
389.600 1.924068
389.700 1.967786
389.800 1.989876
389.900 2.003682
390.000 2.012425
390.100 2.034054
390.200 2.060746
390.300 2.077312
390.400 2.081914
390.500 2.074551
390.600 2.068109
390.700 2.079153
390.800 2.104924
390.900 2.124712
391.000 2.127013
391.100 2.129775
391.200 2.123332
391.300 2.107225
391.400 2.095260
391.500 2.099402
391.600 2.110446
391.700 2.115509
391.800 2.109526
391.900 2.093419
392.000 2.090198
392.100 2.090658
392.200 2.083755
392.300 2.066728
392.400 2.059365
392.500 2.067188
392.600 2.063507
392.700 2.068569
392.800 2.064887
392.900 2.057524
393.000 2.046019
393.100 2.000920
393.200 1.886332
393.300 1.737230
393.400 1.732628
393.500 1.842614
393.600 1.961804
393.700 2.023010
393.800 2.054763
393.900 2.072250
394.000 2.090198
394.100 2.102163
394.200 2.102163
394.300 2.083755
394.400 2.065347
394.500 2.047400
394.600 2.038656
394.700 2.042798
394.800 2.047860
394.900 2.045559
395.000 2.038656
395.100 2.027612
395.200 2.017948
395.300 2.014726
395.400 2.013806
395.500 2.000920
395.600 1.983893
395.700 1.970548
395.800 1.965486
395.900 1.957202
396.000 1.933732
396.100 1.905660
396.200 1.865624
396.300 1.824206
396.400 1.766222
396.500 1.691671
396.600 1.587667
396.700 1.398988
396.800 1.205246
396.900 1.086516
397.000 1.070410
397.100 1.163369
397.200 1.323516
397.300 1.468477
397.400 1.600092
397.500 1.692591
397.600 1.759779
397.700 1.813622
397.800 1.837552
397.900 1.874827
398.000 1.897837
398.100 1.919006
398.200 1.931891
398.300 1.939254
398.400 1.953520
398.500 1.965946
398.600 1.965486
398.700 1.952140
398.800 1.982513
398.900 1.991717
399.000 2.000000
399.100 2.005062
399.200 2.004142
399.300 2.005062
399.400 2.000920
399.500 2.005062
399.600 2.000000
399.700 1.997699
399.800 1.999540
399.900 2.004602
400.000 1.990796
400.100 1.975610
400.200 1.971468
400.300 1.967786
400.400 1.970087
400.500 1.974229
400.600 1.977911
400.700 1.977451
400.800 1.973769
400.900 1.964105
401.000 1.961344
401.100 1.971468
401.200 1.981132
401.300 1.987575
401.400 1.989876
401.500 1.991717
401.600 1.999540
401.700 2.010584
401.800 2.018408
401.900 2.022089
402.000 2.018408
402.100 2.009664
402.200 1.998159
402.300 1.964565
402.400 1.915324
402.500 1.870225
402.600 1.857800
402.700 1.884952
402.800 1.931891
402.900 1.965025
403.000 1.991256
403.100 1.997699
403.200 2.000000
403.300 1.997239
403.400 1.997699
403.500 2.004142
403.600 2.009664
403.700 2.009664
403.800 2.010584
403.900 2.007823
404.000 2.011045
404.100 2.015186
404.200 2.009204
404.300 2.000460
404.400 1.988955
404.500 1.976990
404.600 1.972388
404.700 1.981132
404.800 1.990796
404.900 1.998159
405.000 1.999080
405.100 1.996318
405.200 1.995398
405.300 1.986194
405.400 1.984814
405.500 1.992637
405.600 1.993557
405.700 1.994478
405.800 1.995398
405.900 1.996779
406.000 1.995858
406.100 1.984814
406.200 1.972388
406.300 1.963185
406.400 1.938334
406.500 1.883571
406.600 1.886332
406.700 1.899218
406.800 1.899218
406.900 1.895536
407.000 1.885412
407.100 1.875748
407.200 1.873447
407.300 1.871146
407.400 1.875288
407.500 1.872526
407.600 1.860101
407.700 1.850897
407.800 1.849977
407.900 1.863323
408.000 1.875288
408.100 1.880350
408.200 1.877589
408.300 1.869765
408.400 1.855499
408.500 1.846756
408.600 1.837092
408.700 1.838472
408.800 1.833870
408.900 1.826967
409.000 1.809940
409.100 1.797515
409.200 1.783709
409.300 1.756558
409.400 1.725265
409.500 1.674643
409.600 1.619420
409.700 1.559135
409.800 1.465255
409.900 1.353889
410.000 1.215370
410.100 1.093879
410.200 1.067188
410.300 1.147262
410.400 1.289922
410.500 1.434883
410.600 1.529682
410.700 1.595950
410.800 1.647952
410.900 1.677865
411.000 1.707777
411.100 1.731247
411.200 1.755177
411.300 1.772665
411.400 1.790612
411.500 1.806719
411.600 1.818684
411.700 1.817763
411.800 1.807179
411.900 1.801197
412.000 1.794754
412.100 1.797055
412.200 1.803037
412.300 1.814082
412.400 1.825587
412.500 1.836171
412.600 1.825587
412.700 1.804878
412.800 1.787851
412.900 1.779107
413.000 1.780488
413.100 1.790612
413.200 1.802117
413.300 1.815923
413.400 1.834330
413.500 1.843074
413.600 1.846756
413.700 1.846295
413.800 1.851358
413.900 1.853659
414.000 1.854119
414.100 1.847676
414.200 1.828348
414.300 1.810400
414.400 1.799356
