# Wavelength (nm)   F_lamA (normalized erg/cm2/s/A)9.100 0.000472
9.400 0.000543
9.600 0.000594
9.800 0.000648
10.000 0.000704
10.200 0.000764
10.400 0.000827
10.600 0.000894
10.800 0.000965
11.000 0.001040
11.400 0.001202
11.800 0.001384
12.100 0.001535
12.500 0.001756
12.700 0.001877
12.800 0.001940
13.100 0.002140
13.200 0.002211
13.400 0.002358
13.700 0.002596
14.000 0.002854
14.300 0.003136
14.700 0.003551
15.100 0.004017
15.500 0.004535
15.900 0.005117
16.200 0.005594
16.600 0.006297
17.000 0.007076
17.300 0.007716
17.700 0.008642
18.000 0.009402
18.200 0.009939
18.600 0.011089
19.100 0.012682
19.400 0.013722
19.800 0.015216
20.200 0.016831
20.500 0.018124
21.000 0.020443
21.600 0.023502
22.000 0.025711
22.300 0.027458
22.700 0.029909
23.000 0.578290
23.400 0.641452
24.000 0.810136
24.600 1.078290
25.200 1.344932
25.700 1.077156
26.000 1.487141
26.400 1.866112
26.900 1.922088
27.400 1.959531
27.900 1.837746
28.400 2.015507
29.000 2.013238
29.600 1.822239
30.100 1.200832
30.800 1.474281
31.800 1.885023
32.800 1.888805
33.800 1.836233
34.800 1.789334
35.700 1.843797
36.600 1.921331
37.500 1.883888
38.500 1.745461
39.500 1.833585
40.500 1.861573
41.400 1.838880
42.200 1.782905
43.000 1.740923
44.100 1.770045
45.100 1.746974
46.000 1.686838
47.000 1.657716
48.000 1.655068
49.000 1.589259
50.000 1.605144
50.600 1.743192
51.200 2.187973
52.000 2.129349
53.000 2.072995
54.000 1.931921
55.000 1.904690
56.000 2.018154
57.000 2.000378
58.000 1.930030
59.000 1.928517
60.000 1.855900
61.000 1.804085
62.000 1.860061
63.000 1.814675
64.000 1.806354
65.000 1.762859
65.800 1.712179
66.500 1.728442
67.500 1.718986
68.500 1.641831
69.500 1.662632
70.500 1.580560
71.600 1.618381
72.600 1.597958
73.500 1.580560
74.500 1.544251
75.500 1.516641
76.500 1.472769
77.500 1.468608
78.500 1.444402
79.500 1.427005
80.500 1.410741
81.500 1.395234
82.500 1.380106
83.500 1.304463
84.500 1.336989
85.500 1.313918
86.500 1.305219
87.500 1.288578
88.500 1.269667
89.500 1.251135
90.500 1.224281
91.500 1.264372
92.500 2.404690
93.500 3.413389
94.500 4.931921
95.500 5.669440
96.500 6.580938
97.500 3.842663
98.500 6.947806
99.500 6.838124
100.500 7.129349
101.500 6.335098
102.500 3.683812
103.500 5.741301
104.500 6.996974
105.500 7.102874
106.500 6.724660
107.500 6.940242
108.500 6.471256
109.500 6.804085
110.500 6.592284
111.500 6.490166
112.500 6.157337
113.500 6.285930
114.500 6.002269
115.500 5.926626
116.500 5.828290
117.500 5.109682
118.500 5.336611
119.500 4.791982
120.500 4.137670
121.500 2.519289
122.500 3.975038
123.500 4.591528
124.500 4.765507
125.500 4.822239
126.500 4.701210
127.500 4.860061
128.500 4.878971
129.500 4.693646
130.500 4.614221
131.500 4.742814
132.500 4.648260
133.500 4.527231
134.500 4.595310
135.500 4.504539
136.500 4.394856
137.500 4.353253
138.500 4.326778
139.500 4.111195
140.500 4.039334
141.500 4.133888
142.500 4.058245
143.500 3.997731
144.200 4.009077
144.700 3.978820
145.500 3.929652
146.500 3.838880
147.500 3.793495
148.500 3.744705
149.500 3.688351
150.500 3.634644
151.200 3.568457
151.700 3.566944
152.500 3.495461
153.500 3.367625
154.500 3.332451
155.500 3.250000
156.500 3.212179
157.500 3.236762
158.500 3.229955
159.500 3.221634
160.500 3.099849
161.500 3.067322
162.500 2.992814
163.500 2.975794
164.500 2.922088
165.500 2.859682
166.500 2.926626
167.200 2.806354
167.700 2.866112
168.500 2.866490
169.500 2.795008
170.500 2.742057
171.500 2.703480
172.500 2.663011
173.500 2.681921
174.500 2.624054
175.500 2.625567
176.500 2.520424
177.500 2.551059
178.500 2.517776
179.500 2.515507
180.500 2.493192
181.500 2.447428
182.500 2.412632
183.500 2.383888
184.500 2.307110
185.500 2.281770
186.500 2.271180
187.500 2.273071
188.500 2.218230
189.500 2.178896
190.500 2.181921
191.500 2.139939
192.500 2.113464
193.500 2.093797
194.500 2.112330
195.500 2.058623
196.700 2.067322
197.600 2.049924
198.400 2.015507
199.500 1.973147
200.500 1.960287
201.500 1.936838
202.500 1.921710
203.500 1.907716
204.500 1.896747
205.500 1.770045
206.500 1.790847
207.400 1.857413
207.800 1.841906
208.500 1.836611
209.500 1.800303
210.500 1.790469
211.500 1.781770
212.500 1.768533
213.500 1.724281
214.500 1.729198
215.500 1.715961
216.500 1.673979
217.500 1.662632
218.500 1.652421
219.500 1.667171
220.500 1.631241
221.500 1.589259
222.500 1.576399
223.500 1.603631
224.500 1.567322
225.500 1.529123
226.500 1.515885
227.500 1.526475
228.500 1.524584
229.500 1.482224
230.500 1.482980
231.500 1.468986
232.500 1.363464
233.500 1.426248
234.500 1.371029
235.500 1.412254
236.500 1.356657
237.500 1.373676
238.500 1.303707
239.500 1.334720
240.500 1.314297
241.500 1.311271
242.500 1.335855
243.500 1.308245
244.500 1.318079
245.500 1.305976
246.500 1.287821
247.500 1.263616
248.500 1.258321
249.500 1.226551
250.500 1.271936
251.300 1.212935
251.800 1.210287
252.500 1.186460
253.500 1.182300
254.500 1.178896
255.500 1.204992
256.500 1.188729
257.500 1.204614
258.500 1.196293
259.500 1.181165
260.500 1.156581
261.500 1.138427
262.500 1.154312
263.500 1.163767
264.500 1.208396
265.500 1.209909
266.500 1.170197
267.500 1.181165
268.500 1.183812
269.500 1.147126
270.500 1.151286
271.500 1.117625
272.500 1.109682
273.500 1.121407
274.500 1.054841
275.500 1.066944
276.500 1.088502
277.500 1.106657
278.500 1.076778
279.500 0.939107
280.500 0.973525
281.500 1.091528
282.500 1.094554
283.500 1.079047
284.500 1.061271
285.500 1.020802
286.500 1.063540
287.500 1.059758
288.500 1.058245
289.500 1.053707
291.000 1.075265
293.000 1.052194
295.000 1.036309
297.000 1.033661
299.000 1.027610
301.000 1.023828
303.000 1.015507
305.000 1.010968
307.000 0.996974
309.000 0.989410
311.000 0.979576
313.000 0.967474
315.000 0.959153
317.000 0.958396
319.000 0.930787
321.000 0.938729
323.000 0.919062
325.000 0.933056
327.000 0.942133
329.000 0.935325
331.000 0.930408
332.200 0.855522
332.300 0.841150
332.400 0.833964
332.500 0.839637
332.600 0.835477
332.700 0.827156
332.800 0.836611
332.900 0.847958
333.000 0.864599
333.100 0.871407
333.200 0.862708
333.300 0.854009
333.400 0.839259
333.500 0.836989
333.600 0.830938
333.700 0.824130
333.800 0.829425
333.900 0.831316
334.000 0.831694
334.100 0.836611
334.200 0.832829
334.300 0.846445
334.400 0.862708
334.500 0.865734
334.600 0.866112
334.700 0.847958
334.800 0.820726
334.900 0.796899
335.000 0.792360
335.100 0.799546
335.200 0.805976
335.300 0.814297
335.400 0.824508
335.500 0.836989
335.600 0.836611
335.700 0.825265
335.800 0.798790
335.900 0.773449
336.000 0.753782
336.100 0.759077
336.200 0.780257
336.300 0.804841
336.400 0.819213
336.500 0.809758
336.600 0.799546
336.700 0.795386
336.800 0.791225
336.900 0.790091
337.000 0.777988
337.100 0.764750
337.200 0.752269
337.300 0.759834
337.400 0.778366
337.500 0.808245
337.600 0.823752
337.700 0.817700
337.800 0.802950
337.900 0.793873
338.000 0.800303
338.100 0.811271
338.200 0.818079
338.300 0.821861
338.400 0.821483
338.500 0.828669
338.600 0.824887
338.700 0.810514
338.800 0.798411
338.900 0.807489
339.000 0.825265
339.100 0.841528
339.200 0.838880
339.300 0.825643
339.400 0.828290
339.500 0.837746
339.600 0.849470
339.700 0.854766
339.800 0.858926
339.900 0.849849
340.000 0.836989
340.100 0.828669
340.200 0.810893
340.300 0.804463
340.400 0.797655
340.500 0.806354
340.600 0.807110
340.700 0.806354
340.800 0.805219
340.900 0.804463
341.000 0.814675
341.100 0.809380
341.200 0.805598
341.300 0.804085
341.400 0.805219
341.500 0.816944
341.600 0.824508
341.700 0.826778
341.800 0.835098
341.900 0.841528
342.000 0.848336
342.100 0.849092
342.200 0.832451
342.300 0.813918
342.400 0.808245
342.500 0.814297
342.600 0.821483
342.700 0.832829
342.800 0.847958
342.900 0.859304
343.000 0.861195
343.100 0.845310
343.200 0.828669
343.300 0.821104
343.400 0.832451
343.500 0.849470
343.600 0.854766
343.700 0.846445
343.800 0.835477
343.900 0.825643
344.000 0.814675
344.100 0.798033
344.200 0.787443
344.300 0.784796
344.400 0.790091
344.500 0.801059
344.600 0.819213
344.700 0.839259
344.800 0.855144
344.900 0.866868
345.000 0.847579
345.100 0.819970
345.200 0.802194
345.300 0.796899
345.400 0.807110
345.500 0.813162
345.600 0.811271
345.700 0.810136
345.800 0.804463
345.900 0.800681
346.000 0.792360
346.100 0.789334
346.200 0.799168
346.300 0.810514
346.400 0.811649
346.500 0.803707
346.600 0.804841
346.700 0.815809
346.800 0.826021
346.900 0.834342
347.000 0.841150
347.100 0.838502
347.200 0.831694
347.300 0.810893
347.400 0.794629
347.500 0.787821
347.600 0.790847
347.700 0.806354
347.800 0.813918
347.900 0.817700
348.000 0.828290
348.100 0.830182
348.200 0.824130
348.300 0.817322
348.400 0.815431
348.500 0.826399
348.600 0.838124
348.700 0.839637
348.800 0.834720
348.900 0.823374
349.000 0.813918
349.100 0.817700
349.200 0.830182
349.300 0.832073
349.400 0.826399
349.500 0.816566
349.600 0.807110
349.700 0.811649
349.800 0.812784
349.900 0.813162
350.000 0.804085
350.100 0.796142
350.200 0.804085
350.300 0.810136
350.400 0.810136
350.500 0.802194
350.600 0.792738
350.700 0.787821
350.800 0.784796
350.900 0.792738
351.000 0.800303
351.100 0.803707
351.200 0.798411
351.300 0.787443
351.400 0.784418
351.500 0.793116
351.600 0.813162
351.700 0.827534
351.800 0.832829
351.900 0.821483
352.000 0.810893
352.100 0.805976
352.200 0.799924
352.300 0.795386
352.400 0.787821
352.500 0.781014
352.600 0.787443
352.700 0.795764
352.800 0.806732
352.900 0.817322
353.000 0.826399
353.100 0.835098
353.200 0.830182
353.300 0.805219
353.400 0.787821
353.500 0.781770
353.600 0.799924
353.700 0.820348
353.800 0.827912
353.900 0.836233
354.000 0.835477
354.100 0.831316
354.200 0.830938
354.300 0.841150
354.400 0.847579
354.500 0.843041
354.600 0.838880
354.700 0.834720
354.800 0.833585
354.900 0.833207
355.000 0.836989
355.100 0.846067
355.200 0.845688
355.300 0.831316
355.400 0.818457
355.500 0.818835
355.600 0.827534
355.700 0.840772
355.800 0.848714
355.900 0.849849
356.000 0.847201
356.100 0.846067
356.200 0.842663
356.300 0.832829
356.400 0.818835
356.500 0.805598
356.600 0.799546
356.700 0.800303
356.800 0.802194
356.900 0.801059
357.000 0.791982
357.100 0.776475
357.200 0.768911
357.300 0.767398
357.400 0.771558
357.500 0.780635
357.600 0.790091
357.700 0.793116
357.800 0.795008
357.900 0.792360
358.000 0.785174
358.100 0.776097
358.200 0.767398
358.300 0.767020
358.400 0.765885
358.500 0.757564
358.600 0.744705
358.700 0.737519
358.800 0.743570
358.900 0.763238
359.000 0.780635
359.100 0.788956
359.200 0.787065
359.300 0.784418
359.400 0.786309
359.500 0.795008
359.600 0.804085
359.700 0.808245
359.800 0.810136
359.900 0.812027
360.000 0.812405
360.100 0.800681
360.200 0.792738
360.300 0.788200
360.400 0.792738
360.500 0.798790
360.600 0.798790
360.700 0.793873
360.800 0.788578
360.900 0.788956
361.000 0.789713
361.100 0.790469
361.200 0.793873
361.300 0.796899
361.400 0.802950
361.500 0.817322
361.600 0.819213
361.700 0.813540
361.800 0.804085
361.900 0.795386
362.000 0.799168
362.100 0.806354
362.200 0.814675
362.300 0.819592
362.400 0.823374
362.500 0.835098
362.600 0.851740
362.700 0.865734
362.800 0.859682
362.900 0.841906
363.000 0.814675
363.100 0.799546
363.200 0.803328
363.300 0.819970
363.400 0.831694
363.500 0.827912
363.600 0.819592
363.700 0.821104
363.800 0.827912
363.900 0.833207
364.000 0.836989
364.100 0.833964
364.200 0.825265
364.300 0.815809
364.400 0.810136
364.500 0.810136
364.600 0.807110
364.700 0.804841
364.800 0.805219
364.900 0.804085
365.000 0.804085
365.100 0.805976
365.200 0.815809
365.300 0.824508
365.400 0.832451
365.500 0.841150
365.600 0.847958
365.700 0.850227
365.800 0.848336
365.900 0.844554
366.000 0.838880
366.100 0.830560
366.200 0.823374
366.300 0.821861
366.400 0.826399
366.500 0.832073
366.600 0.833964
366.700 0.831694
366.800 0.825643
366.900 0.819970
367.000 0.818457
367.100 0.821483
367.200 0.829803
367.300 0.834342
367.400 0.830938
367.500 0.824130
367.600 0.812405
367.700 0.801059
367.800 0.793495
367.900 0.795386
368.000 0.802572
368.100 0.808245
368.200 0.808245
368.300 0.804085
368.400 0.804463
368.500 0.800681
368.600 0.795764
368.700 0.795764
368.800 0.810893
368.900 0.832829
369.000 0.836611
369.100 0.826778
369.200 0.822617
369.300 0.830560
369.400 0.843797
369.500 0.847958
369.600 0.830938
369.700 0.812784
369.800 0.819970
369.900 0.852874
370.000 0.892587
370.100 0.896369
370.200 0.858169
370.300 0.796899
370.400 0.759834
370.500 0.757564
370.600 0.788578
370.700 0.830560
370.800 0.859682
370.900 0.851740
371.000 0.811271
371.100 0.773071
371.200 0.751135
371.300 0.773071
371.400 0.830182
371.500 0.897882
371.600 0.942511
371.700 0.964448
371.800 0.948185
371.900 0.889939
372.000 0.796899
372.100 0.728442
372.200 0.703480
372.300 0.737141
372.400 0.817700
372.500 0.894100
372.600 0.944402
372.700 0.980333
372.800 0.995083
372.900 0.998109
373.000 0.983737
373.100 0.936838
373.200 0.844554
373.300 0.757564
373.400 0.682300
373.500 0.666415
373.600 0.710666
373.700 0.796520
373.800 0.882753
373.900 0.978064
374.000 1.031014
374.100 1.065431
374.200 1.065431
374.300 1.051059
374.400 1.024206
374.500 0.989032
374.600 0.939486
374.700 0.875189
374.800 0.797277
374.900 0.717095
375.000 0.680787
375.100 0.695915
375.200 0.758699
375.300 0.861952
375.400 0.951589
375.500 1.009455
375.600 1.052572
375.700 1.063918
375.800 1.064675
375.900 1.061271
376.000 1.063162
376.100 1.077156
376.200 1.087746
376.300 1.081316
376.400 1.066188
376.500 1.032526
376.600 0.988275
376.700 0.931165
376.800 0.843041
376.900 0.762859
377.000 0.692511
377.100 0.680030
377.200 0.729576
377.300 0.819592
377.400 0.892965
377.500 0.963691
377.600 1.012859
377.700 1.062784
377.800 1.118003
377.900 1.159228
378.000 1.203480
378.100 1.225038
378.200 1.236384
378.300 1.237141
378.400 1.235628
378.500 1.229955
378.600 1.221256
378.700 1.200076
378.800 1.180030
378.900 1.161876
379.000 1.139561
379.100 1.115734
379.200 1.072239
379.300 1.020802
379.400 0.953101
379.500 0.863843
379.600 0.776097
379.700 0.686838
379.800 0.650530
379.900 0.678896
380.000 0.770424
380.100 0.869894
380.200 0.968986
380.300 1.024962
380.400 1.080938
380.500 1.115734
380.600 1.143722
380.700 1.177005
380.800 1.205749
380.900 1.240923
381.000 1.267776
381.100 1.284039
381.200 1.275340
381.300 1.260590
381.400 1.246596
381.500 1.247352
381.600 1.257564
381.700 1.270802
381.800 1.270045
381.900 1.242057
382.000 1.220121
382.100 1.209531
382.200 1.218608
382.300 1.217852
382.400 1.190998
382.500 1.159607
382.600 1.125946
382.700 1.099092
382.800 1.062027
382.900 1.021936
383.000 0.981089
383.100 0.920197
383.200 0.857413
383.300 0.764750
383.400 0.676626
383.500 0.627458
383.600 0.624054
383.700 0.669818
383.800 0.749622
383.900 0.828290
384.000 0.901286
384.100 0.979198
384.200 1.040847
384.300 1.107791
384.400 1.150530
384.500 1.188351
384.600 1.221256
384.700 1.248109
384.800 1.268533
384.900 1.275340
385.000 1.281770
385.100 1.299546
385.200 1.322995
385.300 1.343041
385.400 1.346067
385.500 1.338880
385.600 1.328290
385.700 1.321104
385.800 1.319213
385.900 1.324887
386.000 1.336233
386.100 1.348714
386.200 1.354387
386.300 1.349470
386.400 1.345310
386.500 1.340015
386.600 1.340772
386.700 1.344932
386.800 1.347958
386.900 1.344554
387.000 1.328669
387.100 1.310514
387.200 1.284418
387.300 1.271180
387.400 1.265885
387.500 1.265507
387.600 1.256808
387.700 1.227685
387.800 1.198563
387.900 1.170197
388.000 1.159228
388.100 1.142587
388.200 1.103253
388.300 1.062405
388.400 1.004917
388.500 0.940242
388.600 0.858548
388.700 0.753782
388.800 0.678896
388.900 0.642965
389.000 0.673979
389.100 0.755673
389.200 0.850983
389.300 0.919818
389.400 0.983359
389.500 1.027610
389.600 1.080182
389.700 1.121785
389.800 1.152042
389.900 1.177383
390.000 1.195537
390.100 1.223903
390.200 1.245840
390.300 1.264750
390.400 1.271558
390.500 1.276475
390.600 1.289713
390.700 1.313540
390.800 1.346445
390.900 1.374054
391.000 1.388805
391.100 1.394100
391.200 1.392209
391.300 1.382375
391.400 1.370272
391.500 1.372163
391.600 1.384266
391.700 1.388048
391.800 1.385401
391.900 1.377458
392.000 1.375567
392.100 1.377458
392.200 1.378215
392.300 1.381619
392.400 1.381241
392.500 1.379728
392.600 1.364221
392.700 1.344175
392.800 1.313540
392.900 1.277988
393.000 1.234493
393.100 1.153933
393.200 1.045764
393.300 0.937595
393.400 0.911498
393.500 0.983737
393.600 1.102118
393.700 1.206505
393.800 1.282905
393.900 1.322239
394.000 1.344554
394.100 1.360817
394.200 1.365356
394.300 1.359304
394.400 1.354009
394.500 1.349092
394.600 1.350983
394.700 1.350983
394.800 1.341150
394.900 1.330560
395.000 1.324130
395.100 1.316188
395.200 1.306732
395.300 1.307110
395.400 1.302194
395.500 1.288578
395.600 1.269289
395.700 1.245083
395.800 1.231846
395.900 1.213313
396.000 1.180030
396.100 1.141452
396.200 1.090393
396.300 1.047277
396.400 0.991301
396.500 0.909985
396.600 0.808623
396.700 0.669440
396.800 0.560893
396.900 0.491679
397.000 0.503026
397.100 0.574130
397.200 0.684947
397.300 0.784039
397.400 0.883132
397.500 0.952345
397.600 1.018911
397.700 1.072617
397.800 1.114599
397.900 1.159228
398.000 1.183056
398.100 1.206884
398.200 1.227307
398.300 1.247352
398.400 1.270045
398.500 1.289334
398.600 1.306354
398.700 1.319970
398.800 1.340015
398.900 1.347579
399.000 1.353253
399.100 1.361573
399.200 1.367625
399.300 1.378593
399.400 1.385779
399.500 1.388805
399.600 1.381619
399.700 1.374433
399.800 1.371785
399.900 1.383132
400.000 1.392209
400.100 1.397126
400.200 1.399017
400.300 1.393722
400.400 1.386914
400.500 1.379728
400.600 1.381241
400.700 1.389939
400.800 1.404690
400.900 1.412632
401.000 1.415658
401.100 1.416415
401.200 1.415280
401.300 1.415280
401.400 1.415280
401.500 1.421331
401.600 1.428517
401.700 1.435703
401.800 1.442890
401.900 1.445915
402.000 1.447428
402.100 1.444402
402.200 1.438351
402.300 1.427383
402.400 1.413767
402.500 1.406203
402.600 1.406581
402.700 1.419440
402.800 1.429652
402.900 1.431921
403.000 1.425870
403.100 1.419440
403.200 1.417171
403.300 1.419062
403.400 1.425492
403.500 1.438729
403.600 1.451967
403.700 1.465204
403.800 1.465582
403.900 1.458018
404.000 1.450454
404.100 1.445915
404.200 1.445537
404.300 1.440620
404.400 1.421331
404.500 1.399395
404.600 1.388805
404.700 1.403933
404.800 1.427005
404.900 1.442890
405.000 1.444402
405.100 1.444402
405.200 1.441377
405.300 1.433056
405.400 1.423979
405.500 1.422466
405.600 1.425870
405.700 1.429652
405.800 1.431543
405.900 1.439486
406.000 1.443646
406.100 1.435703
406.200 1.413389
406.300 1.391452
406.400 1.377837
406.500 1.366112
406.600 1.369894
406.700 1.373298
406.800 1.372163
406.900 1.370651
407.000 1.360061
407.100 1.338880
407.200 1.328669
407.300 1.332073
407.400 1.338502
407.500 1.337746
407.600 1.318835
407.700 1.301815
407.800 1.292738
407.900 1.300681
408.000 1.314297
408.100 1.321104
408.200 1.319592
408.300 1.310136
408.400 1.298033
408.500 1.283283
408.600 1.273449
408.700 1.267776
408.800 1.260968
408.900 1.252648
409.000 1.231467
409.100 1.214826
409.200 1.198185
409.300 1.168684
409.400 1.140696
409.500 1.093419
409.600 1.048790
409.700 0.999622
409.800 0.934569
409.900 0.861952
410.000 0.759834
410.100 0.687973
410.200 0.662632
410.300 0.715961
410.400 0.801437
410.500 0.897126
410.600 0.958018
410.700 1.013616
410.800 1.054841
410.900 1.089637
411.000 1.125189
411.100 1.150151
411.200 1.180787
411.300 1.203858
411.400 1.226172
411.500 1.248487
411.600 1.263616
411.700 1.271180
411.800 1.270802
411.900 1.271936
412.000 1.276097
412.100 1.286309
412.200 1.297655
412.300 1.307110
412.400 1.318079
412.500 1.327156
412.600 1.328669
412.700 1.326399
412.800 1.324130
412.900 1.324130
413.000 1.322239
413.100 1.319592
413.200 1.317700
413.300 1.323752
413.400 1.341150
413.500 1.353631
413.600 1.363086
413.700 1.371029
413.800 1.378593
413.900 1.387292
414.000 1.385779
414.100 1.374433
414.200 1.357791
414.300 1.343041
414.400 1.341906
414.500 1.349470
414.600 1.364599
414.700 1.370272
414.800 1.371785
414.900 1.373676
415.000 1.376324
415.100 1.380484
415.200 1.378971
415.300 1.374054
415.400 1.368381
415.500 1.365356
