# Wavelength (nm)   F_lamA (normalized erg/cm2/s/A)9.100 0.000001
9.400 0.000002
9.600 0.000003
9.800 0.000004
10.000 0.000006
10.200 0.000010
10.400 0.000014
10.600 0.000021
10.800 0.000030
11.000 0.000044
11.400 0.000085
11.800 0.000158
12.100 0.000244
12.500 0.000420
12.700 0.000543
12.800 0.000615
13.100 0.000884
13.200 0.000992
13.400 0.001246
13.700 0.001726
14.000 0.002353
14.300 0.003161
14.700 0.004582
15.100 0.006494
15.500 0.009013
15.900 0.012261
16.200 0.015268
16.600 0.020151
17.000 0.026194
17.300 0.031583
17.700 0.040045
18.000 0.047460
18.200 0.052939
18.600 0.065320
19.100 0.083647
19.400 0.096307
19.800 0.115298
20.200 0.136775
20.500 0.154635
21.000 0.187867
21.600 0.233836
22.000 0.268274
22.300 0.296157
22.700 0.336096
23.000 11.077619
23.400 12.200452
24.000 15.757347
24.600 21.559910
25.200 26.352675
25.700 20.369254
26.000 29.110776
26.400 36.767144
26.900 37.422758
27.400 37.995479
27.900 36.533534
28.400 38.432555
29.000 38.244160
29.600 35.154484
30.100 24.355690
30.800 30.278824
31.800 37.701583
32.800 37.799548
33.800 37.045968
34.800 36.367747
35.700 36.895252
36.600 37.324793
37.500 36.699322
38.500 34.740015
39.500 35.621703
40.500 35.674454
41.400 35.199699
42.200 34.302939
43.000 33.722683
44.100 33.767898
45.100 33.202713
46.000 32.290882
47.000 31.725697
48.000 31.439337
49.000 30.437076
50.000 30.361718
50.600 32.660136
51.200 38.703843
52.000 37.957800
53.000 37.272042
54.000 35.312735
55.000 34.883195
56.000 35.817634
57.000 35.342879
58.000 34.242653
59.000 34.084401
60.000 33.082140
61.000 32.147702
62.000 32.471741
63.000 31.778448
64.000 31.446873
65.000 30.738508
65.800 29.962321
66.500 30.015072
67.500 29.691032
68.500 28.613414
69.500 28.666164
70.500 27.558402
71.600 27.716654
72.600 27.309721
73.500 26.940467
74.500 26.360211
75.500 25.877920
76.500 25.229842
77.500 24.996232
78.500 24.559156
79.500 24.182366
80.500 23.865863
81.500 23.526752
82.500 23.217784
83.500 22.238131
84.500 22.434062
85.500 22.027129
86.500 21.801055
87.500 21.477016
88.500 21.130369
89.500 20.791258
90.500 20.324039
91.500 21.672946
92.500 37.204220
93.500 50.994725
94.500 71.363979
95.500 77.920121
96.500 88.847023
97.500 57.837227
98.500 87.867370
99.500 82.969103
100.500 85.908063
101.500 81.386586
102.500 53.639789
103.500 76.036172
104.500 81.085154
105.500 79.427280
106.500 75.290128
107.500 75.079126
108.500 69.886963
109.500 72.652600
110.500 70.203466
111.500 68.764130
112.500 65.576488
113.500 66.028636
114.500 63.880934
115.500 62.863602
116.500 61.635268
117.500 55.388093
118.500 58.327054
119.500 56.141673
120.500 52.584778
121.500 36.201959
122.500 50.693293
123.500 52.110023
124.500 51.175584
125.500 50.648078
126.500 49.570460
127.500 48.899774
128.500 47.950264
129.500 46.119066
130.500 45.365486
131.500 45.079126
132.500 43.858327
133.500 42.667671
134.500 42.328561
135.500 41.544838
136.500 40.542577
137.500 39.698568
138.500 39.012811
139.500 36.721929
140.500 35.764883
141.500 36.744537
142.500 35.877920
143.500 35.350414
144.200 34.905803
144.700 34.551620
145.500 33.971364
146.500 33.308214
147.500 32.682743
148.500 32.117558
149.500 31.469480
150.500 30.798794
151.200 30.346647
151.700 30.105501
152.500 29.600603
153.500 28.605878
154.500 27.663904
155.500 27.189148
156.500 27.189148
157.500 26.895252
158.500 26.503391
159.500 26.058779
160.500 25.275057
161.500 24.822909
162.500 24.431047
163.500 23.903542
164.500 22.954032
165.500 23.330821
166.500 22.999246
167.200 22.547099
167.700 22.645064
168.500 22.313489
169.500 21.891485
170.500 21.461944
171.500 20.934439
172.500 20.640543
173.500 20.459683
174.500 20.067822
175.500 19.758855
176.500 19.336850
177.500 19.103240
178.500 18.831952
179.500 18.538056
180.500 18.266767
181.500 17.920121
182.500 17.641296
183.500 17.370008
184.500 16.940467
185.500 16.586285
186.500 16.397890
187.500 16.239638
188.500 15.817634
189.500 15.478523
190.500 15.425772
191.500 15.056518
192.500 14.777694
193.500 14.679729
194.500 14.536549
195.500 14.137151
196.700 14.046722
197.600 13.918613
198.400 13.669932
199.500 13.345893
200.500 13.270535
201.500 13.112283
202.500 12.954032
203.500 12.712886
204.500 12.516956
205.500 11.130369
206.500 11.379050
207.400 12.064808
207.800 11.951771
208.500 11.876413
209.500 11.672946
210.500 11.559910
211.500 11.454408
212.500 11.303693
213.500 11.122833
214.500 10.957046
215.500 10.859081
216.500 10.640543
217.500 10.550113
218.500 10.354182
219.500 10.278824
220.500 10.128109
221.500 9.917106
222.500 9.834213
223.500 9.713640
224.500 9.577995
225.500 9.374529
226.500 9.314243
227.500 9.193670
228.500 9.073097
229.500 8.877167
230.500 8.764130
231.500 8.703843
232.500 8.342125
233.500 8.470234
234.500 8.342125
235.500 8.251696
236.500 8.131123
237.500 8.033157
238.500 7.837227
239.500 7.822155
240.500 7.716654
241.500 7.618689
242.500 7.543331
243.500 7.435569
244.500 7.348154
245.500 7.257724
246.500 7.160512
247.500 7.070083
248.500 6.987189
249.500 6.774680
250.500 6.814619
251.300 6.577995
251.800 6.697061
252.500 6.636021
253.500 6.551620
254.500 6.467973
255.500 6.408440
256.500 6.327807
257.500 6.260739
258.500 6.185381
259.500 6.107762
260.500 6.032404
261.500 5.957046
262.500 5.895252
263.500 5.828184
264.500 5.791258
265.500 5.722683
266.500 5.643557
267.500 5.581763
268.500 5.536549
269.500 5.444612
270.500 5.404672
271.500 5.336096
272.500 5.251696
273.500 5.168802
274.500 5.134891
275.500 5.083647
276.500 5.013564
277.500 4.993218
278.500 4.930671
279.500 4.825170
280.500 4.792012
281.500 4.778448
282.500 4.706858
283.500 4.661643
284.500 4.621703
285.500 4.566692
286.500 4.526752
287.500 4.477016
288.500 4.431801
289.500 4.383572
291.000 4.322532
293.000 4.227581
295.000 4.122833
297.000 4.056518
299.000 3.974378
301.000 3.877920
303.000 3.783723
305.000 3.692540
307.000 3.603617
309.000 3.518463
311.000 3.434062
313.000 3.351922
315.000 3.278071
317.000 3.204220
319.000 3.108515
321.000 3.045215
323.000 2.986436
325.000 2.924642
327.000 2.865109
329.000 2.802562
331.000 2.746797
332.200 2.696307
332.300 2.715147
332.400 2.701583
332.500 2.697061
332.600 2.677468
332.700 2.658628
332.800 2.648078
332.900 2.650339
333.000 2.654861
333.100 2.651846
333.200 2.638282
333.300 2.614167
333.400 2.599849
333.500 2.591560
333.600 2.581763
333.700 2.568199
333.800 2.549359
333.900 2.544838
334.000 2.531274
334.100 2.549359
334.200 2.563677
334.300 2.613414
334.400 2.649586
334.500 2.672193
334.600 2.694800
334.700 2.698568
334.800 2.659382
334.900 2.588546
335.000 2.479277
335.100 2.482291
335.200 2.516956
335.300 2.534288
335.400 2.529013
335.500 2.506405
335.600 2.502638
335.700 2.505652
335.800 2.507913
335.900 2.506405
336.000 2.516956
336.100 2.516956
336.200 2.527506
336.300 2.519216
336.400 2.513941
336.500 2.488320
336.600 2.465712
336.700 2.446873
336.800 2.436323
336.900 2.440844
337.000 2.467973
337.100 2.469480
337.200 2.443858
337.300 2.444612
337.400 2.458930
337.500 2.496609
337.600 2.508666
337.700 2.473248
337.800 2.456669
337.900 2.452148
338.000 2.479277
338.100 2.507913
338.200 2.523738
338.300 2.522984
338.400 2.510927
338.500 2.519216
338.600 2.532027
338.700 2.539563
338.800 2.538056
338.900 2.518463
339.000 2.513188
339.100 2.513188
339.200 2.525245
339.300 2.535041
339.400 2.565185
339.500 2.569706
339.600 2.553881
339.700 2.522231
339.800 2.496609
339.900 2.442351
340.000 2.416729
340.100 2.431047
340.200 2.411454
340.300 2.398644
340.400 2.403165
340.500 2.410701
340.600 2.401658
340.700 2.405426
340.800 2.417483
340.900 2.428787
341.000 2.434815
341.100 2.397136
341.200 2.397890
341.300 2.419744
341.400 2.448380
341.500 2.465712
341.600 2.467973
341.700 2.467973
341.800 2.470987
341.900 2.477769
342.000 2.477769
342.100 2.478523
342.200 2.471741
342.300 2.469480
342.400 2.463451
342.500 2.457423
342.600 2.467219
342.700 2.474002
342.800 2.486812
342.900 2.486812
343.000 2.462698
343.100 2.459683
343.200 2.456669
343.300 2.464205
343.400 2.468726
343.500 2.476262
343.600 2.481537
343.700 2.476262
343.800 2.469480
343.900 2.451394
344.000 2.411454
344.100 2.390354
344.200 2.387340
344.300 2.409194
344.400 2.426526
344.500 2.410701
344.600 2.405426
344.700 2.404672
344.800 2.426526
344.900 2.444612
345.000 2.386586
345.100 2.341372
345.200 2.322532
345.300 2.323286
345.400 2.336096
345.500 2.339864
345.600 2.341372
345.700 2.338357
345.800 2.331575
345.900 2.327054
346.000 2.319518
346.100 2.317257
346.200 2.331575
346.300 2.396383
346.400 2.366993
346.500 2.365486
346.600 2.374529
346.700 2.370761
346.800 2.363979
346.900 2.363225
347.000 2.371515
347.100 2.342879
347.200 2.338357
347.300 2.360211
347.400 2.360211
347.500 2.347400
347.600 2.325546
347.700 2.275810
347.800 2.234363
347.900 2.221552
348.000 2.247928
348.100 2.284099
348.200 2.270535
348.300 2.240392
348.400 2.242653
348.500 2.288621
348.600 2.318764
348.700 2.338357
348.800 2.369254
348.900 2.371515
349.000 2.351168
349.100 2.343632
349.200 2.363979
349.300 2.366240
349.400 2.359457
349.500 2.344386
349.600 2.321025
349.700 2.323286
349.800 2.337604
349.900 2.340618
350.000 2.311228
350.100 2.274303
350.200 2.279578
350.300 2.290882
350.400 2.274303
350.500 2.244913
350.600 2.232856
350.700 2.240392
350.800 2.259985
350.900 2.262999
351.000 2.261492
351.100 2.261492
351.200 2.254710
351.300 2.242653
351.400 2.247928
351.500 2.255463
351.600 2.271289
351.700 2.263753
351.800 2.262246
351.900 2.266014
352.000 2.266014
352.100 2.257724
352.200 2.248681
352.300 2.248681
352.400 2.266767
352.500 2.249435
352.600 2.244160
352.700 2.242653
352.800 2.250942
352.900 2.268274
353.000 2.278824
353.100 2.288621
353.200 2.301432
353.300 2.288621
353.400 2.261492
353.500 2.254710
353.600 2.259231
353.700 2.241899
353.800 2.240392
353.900 2.242653
354.000 2.259985
354.100 2.270535
354.200 2.269028
354.300 2.261492
354.400 2.266014
354.500 2.272042
354.600 2.267521
354.700 2.276564
354.800 2.286360
354.900 2.282592
355.000 2.269028
355.100 2.262999
355.200 2.272796
355.300 2.282592
355.400 2.276564
355.500 2.265260
355.600 2.251696
355.700 2.256217
355.800 2.260739
355.900 2.256971
356.000 2.250188
356.100 2.259231
356.200 2.268274
356.300 2.259985
356.400 2.247174
356.500 2.249435
356.600 2.251696
356.700 2.230595
356.800 2.236624
356.900 2.229842
357.000 2.200452
357.100 2.143934
357.200 2.130369
357.300 2.133384
357.400 2.129616
357.500 2.134891
357.600 2.149209
357.700 2.149962
357.800 2.144687
357.900 2.138659
358.000 2.145441
358.100 2.152223
358.200 2.143934
358.300 2.140166
358.400 2.143180
358.500 2.134137
358.600 2.122080
358.700 2.113037
358.800 2.103994
358.900 2.104748
359.000 2.122080
359.100 2.129616
359.200 2.125848
359.300 2.129616
359.400 2.133384
359.500 2.131876
359.600 2.127355
359.700 2.131123
359.800 2.140166
359.900 2.149962
360.000 2.167295
360.100 2.164280
360.200 2.164280
360.300 2.147702
360.400 2.134891
360.500 2.133384
360.600 2.134891
360.700 2.137151
360.800 2.148455
360.900 2.156745
361.000 2.154484
361.100 2.129616
361.200 2.127355
361.300 2.123587
361.400 2.110023
361.500 2.108515
361.600 2.125094
361.700 2.138659
361.800 2.149209
361.900 2.152223
362.000 2.131876
362.100 2.131123
362.200 2.156745
362.300 2.159759
362.400 2.149962
362.500 2.148455
362.600 2.161266
362.700 2.173323
362.800 2.165787
362.900 2.150716
363.000 2.150716
363.100 2.149962
363.200 2.140166
363.300 2.137151
363.400 2.160512
363.500 2.159005
363.600 2.112283
363.700 2.092690
363.800 2.096458
363.900 2.100226
364.000 2.104748
364.100 2.114544
364.200 2.119066
364.300 2.103240
364.400 2.079126
364.500 2.074604
364.600 2.073097
364.700 2.079126
364.800 2.086662
364.900 2.088169
365.000 2.085908
365.100 2.077619
365.200 2.075358
365.300 2.073097
365.400 2.071590
365.500 2.079879
365.600 2.088169
365.700 2.082140
365.800 2.076865
365.900 2.070836
366.000 2.058779
366.100 2.058026
366.200 2.057272
366.300 2.066315
366.400 2.070083
366.500 2.062547
366.600 2.059533
366.700 2.052751
366.800 2.049736
366.900 2.057272
367.000 2.061040
367.100 2.056518
367.200 2.052751
367.300 2.045968
367.400 2.041447
367.500 2.033911
367.600 2.041447
367.700 2.033157
367.800 2.024868
367.900 2.023361
368.000 2.027129
368.100 2.037679
368.200 2.040693
368.300 2.035418
368.400 2.027129
368.500 2.019593
368.600 2.010550
368.700 2.006029
368.800 2.025622
368.900 2.055765
369.000 2.055011
369.100 2.030143
369.200 2.033157
369.300 2.051997
369.400 2.064054
369.500 2.055765
369.600 2.024868
369.700 2.003014
369.800 2.002261
369.900 2.045215
370.000 2.100226
370.100 2.103994
370.200 2.053504
370.300 1.971364
370.400 1.922381
370.500 1.913338
370.600 1.961567
370.700 2.015072
370.800 2.055765
370.900 2.038433
371.000 1.985682
371.100 1.924642
371.200 1.887717
371.300 1.904295
371.400 1.972118
371.500 2.070836
371.600 2.120573
371.700 2.139412
371.800 2.134137
371.900 2.064054
372.000 1.942728
372.100 1.868877
372.200 1.829691
372.300 1.859834
372.400 1.937453
372.500 2.033157
372.600 2.072344
372.700 2.114544
372.800 2.134891
372.900 2.144687
373.000 2.135644
373.100 2.080633
373.200 1.978146
373.300 1.874906
373.400 1.786737
373.500 1.764883
373.600 1.815373
373.700 1.925396
373.800 2.015072
373.900 2.116051
374.000 2.173323
374.100 2.203466
374.200 2.198945
374.300 2.175584
374.400 2.156745
374.500 2.126601
374.600 2.065561
374.700 1.973625
374.800 1.873399
374.900 1.751319
375.000 1.712133
375.100 1.747551
375.200 1.844763
375.300 1.935946
375.400 2.030897
375.500 2.085908
375.600 2.128862
375.700 2.126601
375.800 2.098719
375.900 2.070836
376.000 2.055765
376.100 2.054258
376.200 2.104748
376.300 2.129616
376.400 2.119066
376.500 2.084401
376.600 2.033911
376.700 1.971364
376.800 1.874152
376.900 1.764130
377.000 1.674454
377.100 1.645818
377.200 1.721929
377.300 1.841748
377.400 1.938960
377.500 2.010550
377.600 2.060286
377.700 2.097965
377.800 2.135644
377.900 2.153730
378.000 2.171816
378.100 2.186134
378.200 2.197438
378.300 2.185381
378.400 2.176338
378.500 2.183873
378.600 2.179352
378.700 2.161266
378.800 2.144687
378.900 2.131123
379.000 2.115298
379.100 2.094197
379.200 2.068576
379.300 2.032404
379.400 1.969103
379.500 1.863602
379.600 1.743029
379.700 1.623964
379.800 1.568199
379.900 1.613414
380.000 1.750565
380.100 1.880934
380.200 1.982668
380.300 2.040693
380.400 2.080633
380.500 2.115298
380.600 2.114544
380.700 2.122080
380.800 2.138659
380.900 2.159759
381.000 2.183120
381.100 2.194424
381.200 2.174077
381.300 2.144687
381.400 2.122080
381.500 2.113791
381.600 2.113037
381.700 2.117558
381.800 2.106255
381.900 2.083647
382.000 2.061040
382.100 2.055011
382.200 2.089676
382.300 2.111530
382.400 2.102487
382.500 2.077619
382.600 2.049736
382.700 2.048229
382.800 2.038433
382.900 2.006029
383.000 1.963828
383.100 1.906556
383.200 1.825923
383.300 1.706858
383.400 1.563677
383.500 1.491334
383.600 1.492087
383.700 1.587038
383.800 1.707611
383.900 1.825923
384.000 1.901281
384.100 1.964582
384.200 2.007536
384.300 2.054258
384.400 2.092690
384.500 2.120573
384.600 2.121326
384.700 2.122833
384.800 2.119819
384.900 2.120573
385.000 2.116051
385.100 2.128862
385.200 2.143180
385.300 2.142427
385.400 2.129616
385.500 2.114544
385.600 2.096458
385.700 2.091183
385.800 2.101733
385.900 2.119819
386.000 2.128109
386.100 2.132630
386.200 2.117558
386.300 2.085154
386.400 2.079879
386.500 2.078372
386.600 2.079126
386.700 2.093444
386.800 2.109269
386.900 2.111530
387.000 2.100226
387.100 2.080633
387.200 2.055765
387.300 2.046722
387.400 2.058026
387.500 2.074604
387.600 2.076865
387.700 2.061794
387.800 2.046722
387.900 2.039186
388.000 2.045215
388.100 2.029390
388.200 1.995479
388.300 1.960060
388.400 1.923135
388.500 1.852298
388.600 1.743783
388.700 1.596081
388.800 1.465712
388.900 1.411454
389.000 1.471741
389.100 1.618689
389.200 1.770158
389.300 1.871891
389.400 1.934439
389.500 1.967596
389.600 1.993971
389.700 2.022607
389.800 2.038433
389.900 2.036172
390.000 2.036172
390.100 2.055765
390.200 2.078372
390.300 2.092690
390.400 2.094197
390.500 2.085908
390.600 2.070083
390.700 2.075358
390.800 2.105501
390.900 2.128109
391.000 2.127355
391.100 2.129616
391.200 2.125848
391.300 2.103240
391.400 2.087415
391.500 2.091937
391.600 2.100226
391.700 2.102487
391.800 2.093444
391.900 2.073097
392.000 2.064808
392.100 2.063301
392.200 2.051997
392.300 2.030143
392.400 2.025622
392.500 2.039940
392.600 2.036172
392.700 2.033911
392.800 2.017332
392.900 1.996986
393.000 1.971364
393.100 1.913338
393.200 1.766390
393.300 1.569706
393.400 1.568199
393.500 1.724190
393.600 1.850791
393.700 1.922381
393.800 1.969103
393.900 2.001507
394.000 2.033911
394.100 2.055011
394.200 2.059533
394.300 2.045968
394.400 2.033911
394.500 2.015072
394.600 2.012811
394.700 2.024115
394.800 2.028636
394.900 2.021854
395.000 2.015072
395.100 2.006029
395.200 2.000754
395.300 2.003014
395.400 2.007536
395.500 2.003014
395.600 1.986436
395.700 1.969857
395.800 1.964582
395.900 1.968350
396.000 1.963828
396.100 1.945742
396.200 1.910324
396.300 1.866616
396.400 1.814619
396.500 1.749812
396.600 1.645064
396.700 1.437830
396.800 1.215524
396.900 1.116805
397.000 1.141673
397.100 1.259985
397.200 1.428033
397.300 1.575735
397.400 1.690279
397.500 1.774680
397.600 1.834966
397.700 1.871138
397.800 1.885456
397.900 1.914846
398.000 1.931424
398.100 1.942728
398.200 1.941974
398.300 1.936699
398.400 1.947249
398.500 1.963075
398.600 1.948003
398.700 1.914092
398.800 1.962321
398.900 1.978146
399.000 1.987189
399.100 1.993971
399.200 1.997739
399.300 2.001507
399.400 1.995479
399.500 1.993218
399.600 1.975885
399.700 1.966843
399.800 1.968350
399.900 1.973625
400.000 1.964582
400.100 1.958553
400.200 1.958553
400.300 1.957046
400.400 1.960060
400.500 1.958553
400.600 1.957800
400.700 1.960814
400.800 1.967596
400.900 1.964582
401.000 1.959307
401.100 1.964582
401.200 1.969103
401.300 1.971364
401.400 1.975885
401.500 1.978146
401.600 1.984928
401.700 1.996232
401.800 2.006029
401.900 2.013564
402.000 2.010550
402.100 1.996986
402.200 1.982668
402.300 1.949510
402.400 1.899774
402.500 1.856820
402.600 1.853052
402.700 1.887717
402.800 1.930671
402.900 1.955539
403.000 1.972871
403.100 1.970610
403.200 1.969857
403.300 1.969103
403.400 1.972118
403.500 1.980407
403.600 1.988696
403.700 1.995479
403.800 2.000000
403.900 1.996232
404.000 1.998493
404.100 2.004521
404.200 1.997739
404.300 1.987943
404.400 1.977393
404.500 1.960814
404.600 1.950264
404.700 1.962321
404.800 1.978900
404.900 1.987943
405.000 1.986436
405.100 1.985682
405.200 1.989450
405.300 1.980407
405.400 1.977393
405.500 1.984928
405.600 1.986436
405.700 1.989450
405.800 1.994725
405.900 2.000000
406.000 1.995479
406.100 1.973625
406.200 1.963075
406.300 1.954785
406.400 1.915599
406.500 1.840995
406.600 1.866616
406.700 1.899020
406.800 1.901281
406.900 1.896760
407.000 1.887717
407.100 1.878674
407.200 1.876413
407.300 1.871891
407.400 1.881688
407.500 1.881688
407.600 1.863602
407.700 1.847023
407.800 1.844009
407.900 1.865109
408.000 1.888470
408.100 1.899774
408.200 1.899020
408.300 1.893745
408.400 1.877167
408.500 1.868877
408.600 1.863602
408.700 1.876413
408.800 1.887717
408.900 1.889977
409.000 1.877167
409.100 1.865109
409.200 1.856066
409.300 1.833459
409.400 1.808591
409.500 1.770158
409.600 1.728711
409.700 1.683497
409.800 1.603617
409.900 1.504145
410.000 1.379804
410.100 1.262999
410.200 1.226827
410.300 1.300678
410.400 1.451394
410.500 1.595328
410.600 1.679729
410.700 1.722683
410.800 1.754333
410.900 1.767144
411.000 1.779955
411.100 1.794273
411.200 1.813112
411.300 1.830445
411.400 1.852298
411.500 1.871138
411.600 1.880934
411.700 1.871138
411.800 1.850038
411.900 1.834966
412.000 1.831198
412.100 1.832705
412.200 1.830445
412.300 1.834213
412.400 1.846270
412.500 1.859834
412.600 1.857573
412.700 1.839488
412.800 1.816127
412.900 1.808591
413.000 1.813866
413.100 1.822155
413.200 1.825170
413.300 1.830445
413.400 1.844763
413.500 1.856820
413.600 1.862849
413.700 1.867370
413.800 1.876413
413.900 1.880934
414.000 1.881688
414.100 1.877167
414.200 1.857573
