# Wavelength (nm)   F_lamA (normalized erg/cm2/s/A)9.100 0.000000
9.400 0.000000
9.600 0.000000
9.800 0.000000
10.000 0.000000
10.200 0.000000
10.400 0.000000
10.600 0.000000
10.800 0.000000
11.000 0.000000
11.400 0.000000
11.800 0.000000
12.100 0.000000
12.500 0.000000
12.700 0.000000
12.800 0.000000
13.100 0.000000
13.200 0.000000
13.400 0.000000
13.700 0.000000
14.000 0.000000
14.300 0.000000
14.700 0.000000
15.100 0.000001
15.500 0.000001
15.900 0.000002
16.200 0.000003
16.600 0.000005
17.000 0.000007
17.300 0.000010
17.700 0.000014
18.000 0.000019
18.200 0.000020
18.600 0.000032
19.100 0.000047
19.400 0.000064
19.800 0.000091
20.200 0.000108
20.500 0.000144
21.000 0.000209
21.600 0.000297
22.000 0.000374
22.300 0.000437
22.700 0.000534
23.000 0.030671
23.400 0.205438
24.000 0.348938
24.600 0.649363
25.200 2.379779
25.700 4.960068
26.000 4.331351
26.400 15.658454
26.900 18.479184
27.400 20.764656
27.900 13.780799
28.400 24.511470
29.000 29.388275
29.600 24.851317
30.100 20.654206
30.800 24.613424
31.800 24.112150
32.800 26.966865
33.800 24.808836
34.800 23.203059
35.700 38.700085
36.600 68.929482
37.500 68.266780
38.500 50.866610
39.500 82.514868
40.500 105.267630
41.400 103.908241
42.200 92.608326
43.000 87.680544
44.100 103.908241
45.100 105.352591
46.000 90.824129
47.000 91.843670
48.000 103.228547
49.000 86.066270
50.000 106.796941
50.600 88.275276
51.200 127.017842
52.000 119.031436
53.000 108.751062
54.000 85.981308
55.000 79.600680
56.000 104.078165
57.000 115.293118
58.000 112.149533
59.000 111.554800
60.000 93.457944
61.000 84.485981
62.000 106.032285
63.000 96.516568
64.000 106.966865
65.000 100.254885
65.800 90.909091
66.500 101.444350
67.500 103.738318
68.500 89.209856
69.500 98.895497
70.500 80.620221
71.600 96.856415
72.600 96.771453
73.500 95.412065
74.500 90.229397
75.500 87.680544
76.500 76.278675
77.500 84.137638
78.500 73.338997
79.500 78.836024
80.500 80.790144
81.500 79.838573
82.500 78.971963
83.500 64.468989
84.500 75.225149
85.500 72.234494
86.500 73.517417
87.500 72.412914
88.500 70.637213
89.500 69.405268
90.500 67.145285
91.500 58.198811
92.500 89.464741
93.500 121.835174
94.500 143.585387
95.500 157.774002
96.500 168.734070
97.500 107.646559
98.500 143.330501
99.500 127.442651
100.500 133.814783
101.500 137.723025
102.500 115.293118
103.500 134.749363
104.500 145.369584
105.500 139.847069
106.500 127.612574
107.500 130.076466
108.500 119.031436
109.500 125.318607
110.500 120.220901
111.500 117.587086
112.500 108.751062
113.500 113.678845
114.500 111.214953
115.500 105.437553
116.500 100.000000
117.500 81.563297
118.500 93.797791
119.500 88.530161
120.500 85.386576
121.500 70.807137
122.500 81.376381
123.500 82.582838
124.500 81.002549
125.500 81.146984
126.500 80.994053
127.500 81.775701
128.500 81.045030
129.500 77.867460
130.500 75.751912
131.500 77.425658
132.500 74.978760
133.500 73.092608
134.500 72.608326
135.500 69.762107
136.500 66.728972
137.500 64.180119
138.500 63.338997
139.500 48.751062
140.500 40.373832
141.500 60.093458
142.500 56.227698
143.500 58.513169
144.200 56.652506
144.700 56.346644
145.500 54.418012
146.500 53.423959
147.500 52.965166
148.500 53.041631
149.500 51.486831
150.500 50.356839
151.200 49.133390
151.700 48.700085
152.500 48.020391
153.500 43.271028
154.500 34.519966
155.500 35.768904
156.500 40.696686
157.500 41.937128
158.500 41.452846
159.500 41.248938
160.500 39.311810
161.500 38.071368
162.500 38.105353
163.500 38.088360
164.500 36.966865
165.500 37.595582
166.500 37.026338
167.200 34.868309
167.700 38.088360
168.500 37.043331
169.500 36.151232
170.500 35.225149
171.500 33.806287
172.500 32.880204
173.500 33.687341
174.500 33.169074
175.500 32.565845
176.500 31.911640
177.500 31.019541
178.500 31.121495
179.500 30.399320
180.500 30.059473
181.500 29.184367
182.500 28.751062
183.500 28.428207
184.500 27.629567
185.500 27.434155
186.500 27.204758
187.500 26.686491
188.500 25.777400
189.500 25.505523
190.500 25.556500
191.500 24.919286
192.500 23.772302
193.500 24.409516
194.500 24.248088
195.500 22.956669
196.700 23.296517
197.600 23.186066
198.400 22.752761
199.500 22.234494
200.500 22.234494
201.500 21.894647
202.500 21.707732
203.500 21.028037
204.500 20.705183
205.500 16.176720
206.500 17.476636
207.400 20.178420
207.800 19.864061
208.500 19.864061
209.500 19.354291
210.500 19.133390
211.500 19.209856
212.500 18.836024
213.500 18.623619
214.500 18.215803
215.500 18.190314
216.500 17.468139
217.500 17.646559
218.500 17.119796
219.500 17.255735
220.500 16.966865
221.500 16.397621
222.500 16.380629
223.500 16.176720
224.500 15.913339
225.500 15.429057
226.500 15.480034
227.500 15.318607
228.500 14.970263
229.500 14.443500
230.500 14.307562
231.500 14.222600
232.500 13.797791
233.500 13.882753
234.500 13.661852
235.500 13.423959
236.500 13.203059
237.500 12.931181
238.500 12.378929
239.500 12.540357
240.500 12.387426
241.500 12.268479
242.500 12.209006
243.500 11.962617
244.500 11.852167
245.500 11.648258
246.500 11.529312
247.500 11.401869
248.500 11.146984
249.500 9.660153
250.500 10.790144
251.300 10.127443
251.800 10.518267
252.500 10.543755
253.500 10.492778
254.500 10.339847
255.500 10.220901
256.500 10.093458
257.500 9.983008
258.500 9.855565
259.500 9.626168
260.500 9.592184
261.500 9.405268
262.500 9.354291
263.500 9.260833
264.500 9.124894
265.500 9.039932
266.500 8.861512
267.500 8.691589
268.500 8.666100
269.500 8.496177
270.500 8.440102
271.500 8.316058
272.500 8.227698
273.500 7.943925
274.500 8.028887
275.500 7.923534
276.500 7.824979
277.500 7.765506
278.500 7.630416
279.500 7.429907
280.500 7.426508
281.500 7.390824
282.500 7.287171
283.500 7.168224
284.500 7.119796
285.500 7.026338
286.500 6.926933
287.500 6.843670
288.500 6.779949
289.500 6.695837
291.000 6.575191
293.000 6.443500
295.000 6.277825
297.000 6.127443
299.000 5.961767
301.000 5.812234
303.000 5.666950
305.000 5.564146
307.000 5.434155
309.000 5.318607
311.000 5.216653
313.000 5.084962
315.000 4.988955
317.000 4.867460
319.000 4.761257
321.000 4.600680
323.000 4.563297
325.000 4.473237
327.000 4.340697
329.000 4.270178
331.000 4.177570
332.200 4.146984
332.300 4.175871
332.400 4.147833
332.500 4.121495
332.600 4.085811
332.700 4.057774
332.800 4.040782
332.900 4.045879
333.000 4.064571
333.100 4.068819
333.200 4.050127
333.300 4.006797
333.400 3.969414
333.500 3.943076
333.600 3.917587
333.700 3.924384
333.800 3.909091
333.900 3.872557
334.000 3.835174
334.100 3.845370
334.200 3.881054
334.300 3.969414
334.400 4.012744
334.500 4.046729
334.600 4.076466
334.700 4.110450
334.800 4.079864
334.900 4.043331
335.000 3.885302
335.100 3.830926
335.200 3.824129
335.300 3.820731
335.400 3.789295
335.500 3.756160
335.600 3.786746
335.700 3.834325
335.800 3.877655
335.900 3.888700
336.000 3.905692
336.100 3.903144
336.200 3.909091
336.300 3.890399
336.400 3.858114
336.500 3.805438
336.600 3.755310
336.700 3.720476
336.800 3.717927
336.900 3.749363
337.000 3.821580
337.100 3.813084
337.200 3.758709
337.300 3.735769
337.400 3.739167
337.500 3.784197
337.600 3.791844
337.700 3.742566
337.800 3.748513
337.900 3.762957
338.000 3.814783
338.100 3.847918
338.200 3.859813
338.300 3.870008
338.400 3.864911
338.500 3.893798
338.600 3.904843
338.700 3.898046
338.800 3.895497
338.900 3.860663
339.000 3.853016
339.100 3.857264
339.200 3.887001
339.300 3.910790
339.400 3.959218
339.500 3.957519
339.600 3.915888
339.700 3.843670
339.800 3.770603
339.900 3.669499
340.000 3.644860
340.100 3.677145
340.200 3.675446
340.300 3.661003
340.400 3.664401
340.500 3.671198
340.600 3.658454
340.700 3.666950
340.800 3.682243
340.900 3.692438
341.000 3.703483
341.100 3.654206
341.200 3.652506
341.300 3.680544
341.400 3.718777
341.500 3.741716
341.600 3.740017
341.700 3.743415
341.800 3.740017
341.900 3.730671
342.000 3.727273
342.100 3.734070
342.200 3.747664
342.300 3.757009
342.400 3.753611
342.500 3.734919
342.600 3.729822
342.700 3.735769
342.800 3.755310
342.900 3.751062
343.000 3.715378
343.100 3.715378
343.200 3.721325
343.300 3.732370
343.400 3.747664
343.500 3.757859
343.600 3.755310
343.700 3.736619
343.800 3.706882
343.900 3.680544
344.000 3.625319
344.100 3.617672
344.200 3.625319
344.300 3.667799
344.400 3.680544
344.500 3.638063
344.600 3.616822
344.700 3.610875
344.800 3.649958
344.900 3.681393
345.000 3.602379
345.100 3.539507
345.200 3.502974
345.300 3.492778
345.400 3.497026
345.500 3.491929
345.600 3.516568
345.700 3.534410
345.800 3.513169
345.900 3.497026
346.000 3.487681
346.100 3.485981
346.200 3.507222
346.300 3.588785
346.400 3.555650
346.500 3.569244
346.600 3.585387
346.700 3.571793
346.800 3.542906
346.900 3.529312
347.000 3.548853
347.100 3.516568
347.200 3.506372
347.300 3.532710
347.400 3.535259
347.500 3.526763
347.600 3.508921
347.700 3.450297
347.800 3.384027
347.900 3.354291
348.000 3.376381
348.100 3.419711
348.200 3.401869
348.300 3.371283
348.400 3.390824
348.500 3.450297
348.600 3.486831
348.700 3.513169
348.800 3.559048
348.900 3.569244
349.000 3.540357
349.100 3.528462
349.200 3.576890
349.300 3.593033
349.400 3.576041
349.500 3.546304
349.600 3.512319
349.700 3.519966
349.800 3.531011
349.900 3.501274
350.000 3.439252
350.100 3.386576
350.200 3.396771
350.300 3.418012
350.400 3.390824
350.500 3.350892
350.600 3.338148
350.700 3.350892
350.800 3.372133
350.900 3.384027
351.000 3.386576
351.100 3.372982
351.200 3.355990
351.300 3.337298
351.400 3.364486
351.500 3.383178
351.600 3.382328
351.700 3.364486
351.800 3.370433
351.900 3.378080
352.000 3.383178
352.100 3.375531
352.200 3.363636
352.300 3.370433
352.400 3.401020
352.500 3.387426
352.600 3.377230
352.700 3.363636
352.800 3.357689
352.900 3.367035
353.000 3.385726
353.100 3.407816
353.200 3.425658
353.300 3.402719
353.400 3.373832
353.500 3.375531
353.600 3.375531
353.700 3.347494
353.800 3.339847
353.900 3.332201
354.000 3.345794
354.100 3.359388
354.200 3.358539
354.300 3.368734
354.400 3.380629
354.500 3.370433
354.600 3.356839
354.700 3.373832
354.800 3.393373
354.900 3.392523
355.000 3.368734
355.100 3.354291
355.200 3.369584
355.300 3.377230
355.400 3.361937
355.500 3.338148
355.600 3.325404
355.700 3.349193
355.800 3.367884
355.900 3.366185
356.000 3.349193
356.100 3.350892
356.200 3.361088
356.300 3.350892
356.400 3.335599
356.500 3.338148
356.600 3.345794
356.700 3.332201
356.800 3.342396
356.900 3.328802
357.000 3.291419
357.100 3.209006
357.200 3.183517
357.300 3.172472
357.400 3.162277
357.500 3.162277
357.600 3.180119
357.700 3.178420
357.800 3.160578
357.900 3.146134
358.000 3.155480
358.100 3.173322
358.200 3.167375
358.300 3.151232
358.400 3.148683
358.500 3.148683
358.600 3.149533
358.700 3.141886
358.800 3.121495
358.900 3.132540
359.000 3.159728
359.100 3.155480
359.200 3.133390
359.300 3.128292
359.400 3.135089
359.500 3.132540
359.600 3.119796
359.700 3.125743
359.800 3.141037
359.900 3.157179
360.000 3.180969
360.100 3.174172
360.200 3.174172
360.300 3.158029
360.400 3.154630
360.500 3.158879
360.600 3.160578
360.700 3.158029
360.800 3.158879
360.900 3.167375
361.000 3.169924
361.100 3.151232
361.200 3.157179
361.300 3.151232
361.400 3.131691
361.500 3.119796
361.600 3.130841
361.700 3.145285
361.800 3.161427
361.900 3.182668
362.000 3.171623
362.100 3.174172
362.200 3.206457
362.300 3.204758
362.400 3.186916
362.500 3.179269
362.600 3.192863
362.700 3.198811
362.800 3.186066
362.900 3.172472
363.000 3.180119
363.100 3.190314
363.200 3.183517
363.300 3.167375
363.400 3.177570
363.500 3.159728
363.600 3.092608
363.700 3.072218
363.800 3.080714
363.900 3.085811
364.000 3.085811
364.100 3.099405
364.200 3.114698
364.300 3.101954
364.400 3.074766
364.500 3.061172
364.600 3.054376
364.700 3.056924
364.800 3.065421
364.900 3.073067
365.000 3.075616
365.100 3.067120
365.200 3.058624
365.300 3.049278
365.400 3.042481
365.500 3.047579
365.600 3.050977
365.700 3.049278
365.800 3.045030
365.900 3.038233
366.000 3.025489
366.100 3.022090
366.200 3.016992
366.300 3.023789
366.400 3.024639
366.500 3.016143
366.600 3.016143
366.700 3.000000
366.800 2.988105
366.900 2.998301
367.000 3.015293
367.100 3.020391
367.200 3.004248
367.300 2.978760
367.400 2.962617
367.500 2.952421
367.600 2.966015
367.700 2.958369
367.800 2.954121
367.900 2.948173
368.000 2.937978
368.100 2.946474
368.200 2.952421
368.300 2.949023
368.400 2.943076
368.500 2.940527
368.600 2.936279
368.700 2.926083
368.800 2.937128
368.900 2.946474
369.000 2.934579
369.100 2.909941
369.200 2.903144
369.300 2.901444
369.400 2.875106
369.500 2.855565
369.600 2.858114
369.700 2.856415
369.800 2.855565
369.900 2.867460
370.000 2.892099
370.100 2.869159
370.200 2.820731
370.300 2.751912
370.400 2.694987
370.500 2.685641
370.600 2.714528
370.700 2.762107
370.800 2.777400
370.900 2.771453
371.000 2.733220
371.100 2.688190
371.200 2.658454
371.300 2.665251
371.400 2.706882
371.500 2.766355
371.600 2.804588
371.700 2.799490
371.800 2.799490
371.900 2.753611
372.000 2.675446
372.100 2.624469
372.200 2.617672
372.300 2.647409
372.400 2.690739
372.500 2.706882
372.600 2.719626
372.700 2.759558
372.800 2.790994
372.900 2.797791
373.000 2.781648
373.100 2.725573
373.200 2.664401
373.300 2.583687
373.400 2.523364
373.500 2.524214
373.600 2.576890
373.700 2.651657
373.800 2.734070
373.900 2.793543
374.000 2.829227
374.100 2.843670
374.200 2.836024
374.300 2.806287
374.400 2.792693
374.500 2.773152
374.600 2.738318
374.700 2.659303
374.800 2.554800
374.900 2.453696
375.000 2.411215
375.100 2.455395
375.200 2.521665
375.300 2.581988
375.400 2.617672
375.500 2.652506
375.600 2.670348
375.700 2.662702
375.800 2.645709
375.900 2.618522
376.000 2.596432
376.100 2.607477
376.200 2.684792
376.300 2.728972
376.400 2.722175
376.500 2.678845
376.600 2.621071
376.700 2.550552
376.800 2.471538
376.900 2.371283
377.000 2.276126
377.100 2.269329
377.200 2.344095
377.300 2.443500
377.400 2.534410
377.500 2.597281
377.600 2.634664
377.700 2.667799
377.800 2.675446
377.900 2.678845
378.000 2.689890
378.100 2.697536
378.200 2.712829
378.300 2.711130
378.400 2.700935
378.500 2.717077
378.600 2.717927
378.700 2.705183
378.800 2.690739
378.900 2.659303
379.000 2.615973
379.100 2.578590
379.200 2.559898
379.300 2.550552
379.400 2.508921
379.500 2.428207
379.600 2.301614
379.700 2.185217
379.800 2.146984
379.900 2.209006
380.000 2.333900
380.100 2.463891
380.200 2.522515
380.300 2.573492
380.400 2.605777
380.500 2.635514
380.600 2.635514
380.700 2.636364
380.800 2.643161
380.900 2.646559
381.000 2.654206
381.100 2.662702
381.200 2.652506
381.300 2.644010
381.400 2.643161
381.500 2.640612
381.600 2.632116
381.700 2.610025
381.800 2.570093
381.900 2.526763
382.000 2.509771
382.100 2.526763
382.200 2.566695
382.300 2.599830
382.400 2.602379
382.500 2.605777
382.600 2.591334
382.700 2.591334
382.800 2.570093
382.900 2.528462
383.000 2.470688
383.100 2.418012
383.200 2.342396
383.300 2.239592
383.400 2.101954
383.500 1.998301
383.600 2.032285
383.700 2.139337
383.800 2.264231
383.900 2.361937
384.000 2.441801
384.100 2.486831
384.200 2.529312
384.300 2.570093
384.400 2.599830
384.500 2.620221
384.600 2.607477
384.700 2.603229
384.800 2.596432
384.900 2.612574
385.000 2.620221
385.100 2.632116
385.200 2.642311
385.300 2.629567
385.400 2.613424
385.500 2.596432
385.600 2.583687
385.700 2.566695
385.800 2.558199
385.900 2.581988
386.000 2.602379
386.100 2.616822
386.200 2.596432
386.300 2.548853
386.400 2.517417
386.500 2.513169
386.600 2.513169
386.700 2.521665
386.800 2.531861
386.900 2.527613
387.000 2.519116
387.100 2.517417
387.200 2.512319
387.300 2.521665
387.400 2.533560
387.500 2.532710
387.600 2.521665
387.700 2.502974
387.800 2.506372
387.900 2.508921
388.000 2.512319
388.100 2.485132
388.200 2.447749
388.300 2.415463
388.400 2.389125
388.500 2.325404
388.600 2.208156
388.700 2.061172
388.800 1.914189
388.900 1.866610
389.000 1.948173
389.100 2.115548
389.200 2.248088
389.300 2.368734
389.400 2.415463
389.500 2.453696
389.600 2.485132
389.700 2.499575
389.800 2.514868
389.900 2.526763
390.000 2.536958
390.100 2.542906
390.200 2.548853
390.300 2.558199
390.400 2.561597
390.500 2.559898
390.600 2.544605
390.700 2.548853
390.800 2.569244
390.900 2.569244
391.000 2.553101
391.100 2.553101
391.200 2.565845
391.300 2.559048
391.400 2.552251
391.500 2.552251
391.600 2.555650
391.700 2.556500
391.800 2.543755
391.900 2.521665
392.000 2.508071
392.100 2.501274
392.200 2.479184
392.300 2.440102
392.400 2.430756
392.500 2.455395
392.600 2.470688
392.700 2.489380
392.800 2.506372
392.900 2.519966
393.000 2.527613
393.100 2.479184
393.200 2.327952
393.300 2.123195
393.400 2.141886
393.500 2.349193
393.600 2.465590
393.700 2.519116
393.800 2.525064
393.900 2.522515
394.000 2.528462
394.100 2.537808
394.200 2.539507
394.300 2.520816
394.400 2.491079
394.500 2.457094
394.600 2.437553
394.700 2.438403
394.800 2.446899
394.900 2.455395
395.000 2.455395
395.100 2.442651
395.200 2.429057
395.300 2.421410
395.400 2.415463
395.500 2.405268
395.600 2.394223
395.700 2.391674
395.800 2.388275
395.900 2.388275
396.000 2.375531
396.100 2.355140
396.200 2.338148
396.300 2.303314
396.400 2.256585
396.500 2.215803
396.600 2.123195
396.700 1.926083
396.800 1.686491
396.900 1.593883
397.000 1.642311
397.100 1.769754
397.200 1.926933
397.300 2.090909
397.400 2.175871
397.500 2.236194
397.600 2.270178
397.700 2.288020
397.800 2.299915
397.900 2.319456
398.000 2.333050
398.100 2.350892
398.200 2.360238
398.300 2.355140
398.400 2.344095
398.500 2.342396
398.600 2.316907
398.700 2.276975
398.800 2.350042
398.900 2.366185
399.000 2.368734
399.100 2.367884
399.200 2.361937
399.300 2.356839
399.400 2.352591
399.500 2.359388
399.600 2.361088
399.700 2.361937
399.800 2.362787
399.900 2.359388
400.000 2.336449
400.100 2.321155
400.200 2.317757
400.300 2.319456
400.400 2.321155
400.500 2.328802
400.600 2.333900
400.700 2.331351
400.800 2.322005
400.900 2.311810
401.000 2.303314
401.100 2.320306
401.200 2.340697
401.300 2.336449
401.400 2.338148
401.500 2.335599
401.600 2.338148
401.700 2.352591
401.800 2.350042
401.900 2.346644
402.000 2.338148
402.100 2.327952
402.200 2.327103
402.300 2.284622
402.400 2.206457
402.500 2.134240
402.600 2.110450
402.700 2.154630
402.800 2.231946
402.900 2.298216
403.000 2.328802
403.100 2.344095
403.200 2.344945
403.300 2.341546
403.400 2.336449
403.500 2.346644
403.600 2.350042
403.700 2.338997
403.800 2.331351
403.900 2.323704
404.000 2.326253
404.100 2.339847
404.200 2.336449
404.300 2.330501
404.400 2.326253
404.500 2.326253
404.600 2.327103
404.700 2.331351
404.800 2.336449
404.900 2.339847
405.000 2.336449
405.100 2.338997
405.200 2.344945
405.300 2.339847
405.400 2.343246
405.500 2.349193
405.600 2.343246
405.700 2.333050
405.800 2.327952
405.900 2.326253
406.000 2.327103
406.100 2.322005
406.200 2.314359
406.300 2.310960
406.400 2.269329
406.500 2.160578
406.600 2.173322
406.700 2.201359
406.800 2.192014
406.900 2.180969
407.000 2.175021
407.100 2.183517
407.200 2.198811
407.300 2.193713
407.400 2.188615
407.500 2.186066
407.600 2.183517
407.700 2.186916
407.800 2.194562
407.900 2.203059
408.000 2.209006
408.100 2.209006
408.200 2.207307
408.300 2.205607
408.400 2.192014
408.500 2.187766
408.600 2.169924
408.700 2.153781
408.800 2.129142
408.900 2.115548
409.000 2.105353
409.100 2.131691
409.200 2.154630
409.300 2.142736
409.400 2.107901
409.500 2.045879
409.600 1.977060
409.700 1.911640
409.800 1.847918
409.900 1.751062
410.000 1.644860
410.100 1.542056
410.200 1.508921
410.300 1.596432
410.400 1.763806
410.500 1.892948
410.600 1.987256
410.700 2.033135
410.800 2.068819
410.900 2.092608
411.000 2.110450
411.100 2.128292
411.200 2.138488
411.300 2.130841
411.400 2.131691
411.500 2.127443
411.600 2.123195
411.700 2.119796
411.800 2.109601
411.900 2.111300
412.000 2.112999
412.100 2.113849
412.200 2.129142
412.300 2.144435
412.400 2.149533
412.500 2.150382
412.600 2.149533
412.700 2.147833
412.800 2.141886
412.900 2.147833
413.000 2.152082
413.100 2.154630
413.200 2.145285
413.300 2.134240
413.400 2.135939
413.500 2.144435
413.600 2.148683
413.700 2.146984
413.800 2.146984
