# Wavelength (nm)   F_lamA (normalized erg/cm2/s/A)9.100 0.000023
9.400 0.000034
9.600 0.000044
9.800 0.000057
10.000 0.000071
10.200 0.000089
10.400 0.000111
10.600 0.000135
10.800 0.000165
11.000 0.000198
11.400 0.000281
11.800 0.000387
12.100 0.000485
12.500 0.000640
12.700 0.000730
12.800 0.000778
13.100 0.000935
13.200 0.000992
13.400 0.001113
13.700 0.001311
14.000 0.001532
14.300 0.001776
14.700 0.002136
15.100 0.002539
15.500 0.002982
15.900 0.003467
16.200 0.003856
16.600 0.004410
17.000 0.005002
17.300 0.005469
17.700 0.006122
18.000 0.006631
18.200 0.006981
18.600 0.007700
19.100 0.008635
19.400 0.009213
19.800 0.010000
20.200 0.010804
20.500 0.011415
21.000 0.012450
21.600 0.013706
22.000 0.014547
22.300 0.015181
22.700 0.016022
23.000 0.143649
23.400 0.142408
24.000 0.141328
24.600 0.141070
25.200 0.140216
25.700 0.133785
26.000 0.136541
26.400 0.136476
26.900 0.134188
27.400 0.132028
27.900 0.128756
28.400 0.127160
29.000 0.124049
29.600 0.119665
30.100 0.111976
30.800 0.110251
31.800 0.109462
32.800 0.105110
33.800 0.100371
34.800 0.095906
35.700 0.092585
36.600 0.089458
37.500 0.085912
38.500 0.081383
39.500 0.078691
40.500 0.075725
41.400 0.072856
42.200 0.070164
43.000 0.067779
44.100 0.065055
45.100 0.062395
46.000 0.059897
47.000 0.057447
48.000 0.055303
49.000 0.052885
50.000 0.051048
50.600 0.050903
51.200 0.052498
52.000 0.050806
53.000 0.048920
54.000 0.046486
55.000 0.044842
56.000 0.043988
57.000 0.042521
58.000 0.040812
59.000 0.039620
60.000 0.038072
61.000 0.036589
62.000 0.035799
63.000 0.034542
64.000 0.033543
65.000 0.032398
65.800 0.031399
66.500 0.030916
67.500 0.030029
68.500 0.028836
69.500 0.028224
70.500 0.027079
71.600 0.026515
72.600 0.025774
73.500 0.025129
74.500 0.024355
75.500 0.023646
76.500 0.022856
77.500 0.022340
78.500 0.021712
79.500 0.021148
80.500 0.020616
81.500 0.020100
82.500 0.019616
83.500 0.018827
84.500 0.018601
85.500 0.018117
86.500 0.017730
87.500 0.017295
88.500 0.016876
89.500 0.016473
90.500 0.016015
91.500 0.018907
92.500 0.027128
93.500 0.035058
94.500 0.047099
95.500 0.051144
96.500 0.057205
97.500 0.037975
98.500 0.056931
99.500 0.054320
100.500 0.056190
101.500 0.053256
102.500 0.035654
103.500 0.049226
104.500 0.054046
105.500 0.053079
106.500 0.050226
107.500 0.050709
108.500 0.047485
109.500 0.049420
110.500 0.047760
111.500 0.047002
112.500 0.044923
113.500 0.045471
114.500 0.043939
115.500 0.043536
116.500 0.042940
117.500 0.038846
118.500 0.040732
119.500 0.038346
120.500 0.035235
121.500 0.023823
122.500 0.034333
123.500 0.036444
124.500 0.036412
125.500 0.036154
126.500 0.035397
127.500 0.035429
128.500 0.035010
129.500 0.033623
130.500 0.033188
131.500 0.033527
132.500 0.032850
133.500 0.032060
134.500 0.032479
135.500 0.032205
136.500 0.031915
137.500 0.031915
138.500 0.032060
139.500 0.031383
140.500 0.031447
141.500 0.033108
142.500 0.032979
143.500 0.033430
144.200 0.034977
144.700 0.033946
145.500 0.035880
146.500 0.034671
147.500 0.035993
148.500 0.036896
149.500 0.037879
150.500 0.039942
151.200 0.040522
151.700 0.039055
152.500 0.041602
153.500 0.044246
154.500 0.044729
155.500 0.049774
156.500 0.049855
157.500 0.058462
158.500 0.066941
159.500 0.070390
160.500 0.063975
161.500 0.075242
162.500 0.076402
163.500 0.079320
164.500 0.097389
165.500 0.080754
166.500 0.114958
167.200 0.101596
167.700 0.121357
168.500 0.130835
169.500 0.129191
170.500 0.135896
171.500 0.148082
172.500 0.150129
173.500 0.161509
174.500 0.160671
175.500 0.171502
176.500 0.155513
177.500 0.170858
178.500 0.175693
179.500 0.188427
180.500 0.211315
181.500 0.213894
182.500 0.205513
183.500 0.214055
184.500 0.195680
185.500 0.208575
186.500 0.220342
187.500 0.220986
188.500 0.224210
189.500 0.232592
190.500 0.227273
191.500 0.238878
192.500 0.245487
193.500 0.230819
194.500 0.254191
195.500 0.256447
196.700 0.269020
197.600 0.262411
198.400 0.262734
199.500 0.263378
200.500 0.254674
201.500 0.261928
202.500 0.246293
203.500 0.272727
204.500 0.285300
205.500 0.281431
206.500 0.280303
207.400 0.301096
207.800 0.301580
208.500 0.300774
209.500 0.294971
210.500 0.290619
211.500 0.300774
212.500 0.301902
213.500 0.285300
214.500 0.307382
215.500 0.304642
216.500 0.292553
217.500 0.294810
218.500 0.308349
219.500 0.329142
220.500 0.320761
221.500 0.304803
222.500 0.316731
223.500 0.346389
224.500 0.329304
225.500 0.314797
226.500 0.305609
227.500 0.327208
228.500 0.337524
229.500 0.321406
230.500 0.338975
231.500 0.341876
232.500 0.312379
233.500 0.331399
234.500 0.297228
235.500 0.351386
236.500 0.313346
237.500 0.339297
238.500 0.289329
239.500 0.323017
240.500 0.318988
241.500 0.323823
242.500 0.364120
243.500 0.355738
244.500 0.370890
245.500 0.369923
246.500 0.370890
247.500 0.353482
248.500 0.344778
249.500 0.343972
250.500 0.389749
251.300 0.350419
251.800 0.326241
252.500 0.317698
253.500 0.331721
254.500 0.337041
255.500 0.373469
256.500 0.371696
257.500 0.398614
258.500 0.399903
259.500 0.394907
260.500 0.381528
261.500 0.367666
262.500 0.402160
263.500 0.419729
264.500 0.471631
265.500 0.483720
266.500 0.452772
267.500 0.473404
268.500 0.487266
269.500 0.456319
270.500 0.467279
271.500 0.436976
272.500 0.440361
273.500 0.461960
274.500 0.401354
275.500 0.427144
276.500 0.463088
277.500 0.482592
278.500 0.461154
279.500 0.299807
280.500 0.346067
281.500 0.507253
282.500 0.513862
283.500 0.506447
284.500 0.489684
285.500 0.435364
286.500 0.503868
287.500 0.508059
288.500 0.518053
289.500 0.523694
291.000 0.555287
293.000 0.547711
295.000 0.541586
297.000 0.546905
299.000 0.555932
301.000 0.560284
303.000 0.566892
305.000 0.577047
307.000 0.575758
309.000 0.576886
311.000 0.579948
313.000 0.582044
315.000 0.585106
317.000 0.595745
319.000 0.576725
321.000 0.594778
323.000 0.582850
325.000 0.611702
327.000 0.636041
329.000 0.639265
331.000 0.642005
332.200 0.587847
332.300 0.544971
332.400 0.536428
332.500 0.548839
332.600 0.553191
332.700 0.545938
332.800 0.548678
332.900 0.551741
333.000 0.567376
333.100 0.584462
333.200 0.586235
333.300 0.595100
333.400 0.584623
333.500 0.572211
333.600 0.557705
333.700 0.546905
333.800 0.559961
333.900 0.573501
334.000 0.579465
334.100 0.579948
334.200 0.574952
334.300 0.589942
334.400 0.605899
334.500 0.603482
334.600 0.590426
334.700 0.558994
334.800 0.539652
334.900 0.527885
335.000 0.553353
335.100 0.558833
335.200 0.542231
335.300 0.540941
335.400 0.557060
335.500 0.597195
335.600 0.604288
335.700 0.582527
335.800 0.529336
335.900 0.477917
336.000 0.450193
336.100 0.461154
336.200 0.493391
336.300 0.535139
336.400 0.566409
336.500 0.555609
336.600 0.544165
336.700 0.542231
336.800 0.542553
336.900 0.545293
337.000 0.504191
337.100 0.463733
337.200 0.457124
337.300 0.482753
337.400 0.522083
337.500 0.556576
337.600 0.573823
337.700 0.567537
337.800 0.549162
337.900 0.531431
338.000 0.531754
338.100 0.541103
338.200 0.544487
338.300 0.552547
338.400 0.568021
338.500 0.581883
338.600 0.576080
338.700 0.544326
338.800 0.523694
338.900 0.554642
339.000 0.580432
339.100 0.595583
339.200 0.572534
339.300 0.543681
339.400 0.552063
339.500 0.569955
339.600 0.599452
339.700 0.615248
339.800 0.623952
339.900 0.628949
340.000 0.625242
340.100 0.613153
340.200 0.589297
340.300 0.581883
340.400 0.573985
340.500 0.581883
340.600 0.585912
340.700 0.573985
340.800 0.548356
340.900 0.551902
341.000 0.580110
341.100 0.577531
341.200 0.568665
341.300 0.548678
341.400 0.549323
341.500 0.575274
341.600 0.595100
341.700 0.604449
341.800 0.604126
341.900 0.601064
342.000 0.602837
342.100 0.605416
342.200 0.592360
342.300 0.572050
342.400 0.563185
342.500 0.568343
342.600 0.573662
342.700 0.583333
342.800 0.606705
342.900 0.630883
343.000 0.646357
343.100 0.628143
343.200 0.602998
343.300 0.586235
343.400 0.595100
343.500 0.622340
343.600 0.627337
343.700 0.610251
343.800 0.588975
343.900 0.570761
344.000 0.563346
344.100 0.553191
344.200 0.547711
344.300 0.547389
344.400 0.553675
344.500 0.561573
344.600 0.580593
344.700 0.611057
344.800 0.631528
344.900 0.642166
345.000 0.621373
345.100 0.589297
345.200 0.564958
345.300 0.561090
345.400 0.573823
345.500 0.585751
345.600 0.594455
345.700 0.602998
345.800 0.604449
345.900 0.599291
346.000 0.578498
346.100 0.558511
346.200 0.567054
346.300 0.574468
346.400 0.583978
346.500 0.577208
346.600 0.576402
346.700 0.596873
346.800 0.626531
346.900 0.647808
347.000 0.653127
347.100 0.638459
347.200 0.621696
347.300 0.592037
347.400 0.571406
347.500 0.563024
347.600 0.564313
347.700 0.592199
347.800 0.619278
347.900 0.630722
348.000 0.639749
348.100 0.635558
348.200 0.629916
348.300 0.627821
348.400 0.626370
348.500 0.635719
348.600 0.651838
348.700 0.651193
348.800 0.637653
348.900 0.612830
349.000 0.592682
349.100 0.607028
349.200 0.625887
349.300 0.623952
349.400 0.618311
349.500 0.609123
349.600 0.599774
349.700 0.601064
349.800 0.590426
349.900 0.591231
350.000 0.594455
350.100 0.597840
350.200 0.609768
350.300 0.612347
350.400 0.611219
350.500 0.600903
350.600 0.595906
350.700 0.595745
350.800 0.588814
350.900 0.591231
351.000 0.590748
351.100 0.591393
351.200 0.588008
351.300 0.582850
351.400 0.589297
351.500 0.604610
351.600 0.633623
351.700 0.654255
351.800 0.650226
351.900 0.624758
352.000 0.607834
352.100 0.597034
352.200 0.591070
352.300 0.581399
352.400 0.566731
352.500 0.558672
352.600 0.566409
352.700 0.580271
352.800 0.600258
352.900 0.617988
353.000 0.632334
353.100 0.644423
353.200 0.641522
353.300 0.622663
353.400 0.608640
353.500 0.603643
353.600 0.622018
353.700 0.653127
353.800 0.667956
353.900 0.670858
354.000 0.663765
354.100 0.656351
354.200 0.655867
354.300 0.665216
354.400 0.675048
354.500 0.672308
354.600 0.665377
354.700 0.653933
354.800 0.647002
354.900 0.651999
355.000 0.665216
355.100 0.681335
355.200 0.672792
355.300 0.651193
355.400 0.637331
355.500 0.640554
355.600 0.655061
355.700 0.675048
355.800 0.686654
355.900 0.681657
356.000 0.671825
356.100 0.665700
356.200 0.657640
356.300 0.644745
356.400 0.627337
356.500 0.610413
356.600 0.607672
356.700 0.610413
356.800 0.609123
356.900 0.604449
357.000 0.591876
357.100 0.580593
357.200 0.578659
357.300 0.581883
357.400 0.589781
357.500 0.601225
357.600 0.610251
357.700 0.621212
357.800 0.632979
357.900 0.628627
358.000 0.612830
358.100 0.595745
358.200 0.584462
358.300 0.586718
358.400 0.580754
358.500 0.563669
358.600 0.538846
358.700 0.526112
358.800 0.542714
358.900 0.575596
359.000 0.604771
359.100 0.615248
359.200 0.609768
359.300 0.608801
359.400 0.615248
359.500 0.634752
359.600 0.649903
359.700 0.654739
359.800 0.652160
359.900 0.649259
360.000 0.650870
360.100 0.640232
360.200 0.630400
360.300 0.628143
360.400 0.635719
360.500 0.636041
360.600 0.627337
360.700 0.615732
360.800 0.609123
360.900 0.611541
361.000 0.611057
361.100 0.615732
361.200 0.627982
361.300 0.635719
361.400 0.642166
361.500 0.663604
361.600 0.669084
361.700 0.659574
361.800 0.635880
361.900 0.610896
362.000 0.619761
362.100 0.639265
362.200 0.652482
362.300 0.660703
362.400 0.667150
362.500 0.685525
362.600 0.707124
362.700 0.726306
362.800 0.721309
362.900 0.692779
363.000 0.651676
363.100 0.626209
363.200 0.633623
363.300 0.655384
363.400 0.660380
363.500 0.655867
363.600 0.654417
363.700 0.670696
363.800 0.690200
363.900 0.698582
364.000 0.698743
364.100 0.690039
364.200 0.676015
364.300 0.665861
364.400 0.657963
364.500 0.653933
364.600 0.652966
364.700 0.652160
364.800 0.651999
364.900 0.647647
365.000 0.645229
365.100 0.647808
365.200 0.661348
365.300 0.676338
365.400 0.696809
365.500 0.715023
365.600 0.726950
365.700 0.732914
365.800 0.730174
365.900 0.731464
366.000 0.734526
366.100 0.722437
366.200 0.707930
366.300 0.696003
366.400 0.696647
366.500 0.706319
366.600 0.708253
366.700 0.704868
366.800 0.691328
366.900 0.681818
367.000 0.682463
367.100 0.690683
367.200 0.702450
367.300 0.709542
367.400 0.708414
367.500 0.702289
367.600 0.682785
367.700 0.660380
367.800 0.648775
367.900 0.651032
368.000 0.659897
368.100 0.666183
368.200 0.670858
368.300 0.672147
368.400 0.672147
368.500 0.659252
368.600 0.653288
368.700 0.662476
368.800 0.687460
368.900 0.712605
369.000 0.709059
369.100 0.699549
369.200 0.694552
369.300 0.698098
369.400 0.705190
369.500 0.714861
369.600 0.713894
369.700 0.700838
369.800 0.710026
369.900 0.730013
370.000 0.753546
370.100 0.752418
370.200 0.710671
370.300 0.661509
370.400 0.628627
370.500 0.623469
370.600 0.636847
370.700 0.656028
370.800 0.673598
370.900 0.674081
371.000 0.655222
371.100 0.633140
371.200 0.630722
371.300 0.656995
371.400 0.703901
371.500 0.745487
371.600 0.770793
371.700 0.776273
371.800 0.757253
371.900 0.703578
372.000 0.627015
372.100 0.569310
372.200 0.562379
372.300 0.601064
372.400 0.673759
372.500 0.728240
372.600 0.751289
372.700 0.761122
372.800 0.767086
372.900 0.769504
373.000 0.765152
373.100 0.734365
373.200 0.662959
373.300 0.587847
373.400 0.530625
373.500 0.517247
373.600 0.559155
373.700 0.627015
373.800 0.686976
373.900 0.749194
374.000 0.786428
374.100 0.800935
374.200 0.787395
374.300 0.769181
374.400 0.742102
374.500 0.713572
374.600 0.691973
374.700 0.664732
374.800 0.623469
374.900 0.584945
375.000 0.564636
375.100 0.581883
375.200 0.627498
375.300 0.711960
375.400 0.773856
375.500 0.805126
375.600 0.812863
375.700 0.793198
375.800 0.775145
375.900 0.769826
376.000 0.771277
376.100 0.786106
376.200 0.797711
376.300 0.798034
376.400 0.789974
376.500 0.772566
376.600 0.751451
376.700 0.721954
376.800 0.667795
376.900 0.613475
377.000 0.573017
377.100 0.581721
377.200 0.631206
377.300 0.698259
377.400 0.748549
377.500 0.780787
377.600 0.794649
377.700 0.814958
377.800 0.842682
377.900 0.871696
378.000 0.900226
378.100 0.912476
378.200 0.910703
378.300 0.903127
378.400 0.899420
378.500 0.887975
378.600 0.875081
378.700 0.850097
378.800 0.833011
378.900 0.828981
379.000 0.827047
379.100 0.821567
379.200 0.802869
379.300 0.776112
379.400 0.733720
379.500 0.675854
379.600 0.614281
379.700 0.554965
379.800 0.532237
379.900 0.571083
380.000 0.651838
380.100 0.725177
380.200 0.787718
380.300 0.815925
380.400 0.841554
380.500 0.849936
380.600 0.855255
380.700 0.866054
380.800 0.886041
380.900 0.911670
381.000 0.929884
381.100 0.931818
381.200 0.908285
381.300 0.881689
381.400 0.858640
381.500 0.857028
381.600 0.876692
381.700 0.900387
381.800 0.907963
381.900 0.886686
382.000 0.862508
382.100 0.854449
382.200 0.859446
382.300 0.855899
382.400 0.832044
382.500 0.807060
382.600 0.787234
382.700 0.774662
382.800 0.754997
382.900 0.740006
383.000 0.727112
383.100 0.693907
383.200 0.654578
383.300 0.584784
383.400 0.523533
383.500 0.498549
383.600 0.510799
383.700 0.548678
383.800 0.603804
383.900 0.648614
384.000 0.689555
384.100 0.738556
384.200 0.781593
384.300 0.828981
384.400 0.859123
384.500 0.878143
384.600 0.895551
384.700 0.914894
384.800 0.924404
384.900 0.918601
385.000 0.914410
385.100 0.926821
385.200 0.951966
385.300 0.973404
385.400 0.975016
385.500 0.960348
385.600 0.943424
385.700 0.930851
385.800 0.917795
385.900 0.914410
386.000 0.925532
386.100 0.947292
386.200 0.967118
386.300 0.975822
386.400 0.970342
386.500 0.960832
386.600 0.960671
386.700 0.965667
386.800 0.971148
386.900 0.971470
387.000 0.957124
387.100 0.939233
387.200 0.913121
387.300 0.899097
387.400 0.896357
387.500 0.902805
387.600 0.899420
387.700 0.875081
387.800 0.851225
387.900 0.841876
388.000 0.851386
388.100 0.853965
388.200 0.838975
388.300 0.816248
388.400 0.779175
388.500 0.734848
388.600 0.676983
388.700 0.602031
388.800 0.550451
388.900 0.540941
389.000 0.579626
389.100 0.650870
389.200 0.716151
389.300 0.750645
389.400 0.774984
389.500 0.796422
389.600 0.823823
389.700 0.845100
389.800 0.859768
389.900 0.868311
390.000 0.878949
390.100 0.891683
390.200 0.897647
390.300 0.902966
390.400 0.897647
390.500 0.895874
390.600 0.906190
390.700 0.930368
390.800 0.961799
390.900 0.988556
391.000 1.001934
391.100 1.005964
391.200 1.004191
391.300 0.996132
391.400 0.984204
391.500 0.978885
391.600 0.980496
391.700 0.979368
391.800 0.972276
391.900 0.961960
392.000 0.955835
392.100 0.954707
392.200 0.956157
392.300 0.963572
392.400 0.966796
392.500 0.962766
392.600 0.938427
392.700 0.905222
392.800 0.856222
392.900 0.801580
393.000 0.721792
393.100 0.610413
393.200 0.483398
393.300 0.391038
393.400 0.382979
393.500 0.473565
393.600 0.605093
393.700 0.721148
393.800 0.820922
393.900 0.877982
394.000 0.915700
394.100 0.937299
394.200 0.942456
394.300 0.939555
394.400 0.944552
394.500 0.951644
394.600 0.963088
394.700 0.968085
394.800 0.962282
394.900 0.952772
395.000 0.946325
395.100 0.943424
395.200 0.943585
395.300 0.951483
395.400 0.950032
395.500 0.941973
395.600 0.928272
395.700 0.914088
395.800 0.913282
395.900 0.907479
396.000 0.884268
396.100 0.853482
396.200 0.811251
396.300 0.775145
396.400 0.730980
396.500 0.656834
396.600 0.554965
396.700 0.424887
396.800 0.332366
396.900 0.304481
397.000 0.357350
397.100 0.458897
397.200 0.574307
397.300 0.652482
397.400 0.725983
397.500 0.775467
397.600 0.820438
397.700 0.853965
397.800 0.882334
397.900 0.909736
398.000 0.922469
398.100 0.929562
398.200 0.935848
398.300 0.947292
398.400 0.963411
398.500 0.980013
398.600 0.995487
398.700 1.007576
398.800 1.019665
398.900 1.023694
399.000 1.026435
399.100 1.032398
399.200 1.038524
399.300 1.048356
399.400 1.051418
399.500 1.045616
399.600 1.026757
399.700 1.014184
399.800 1.016441
399.900 1.034655
400.000 1.049968
400.100 1.060284
400.200 1.061412
400.300 1.051418
400.400 1.035945
400.500 1.022405
400.600 1.024178
400.700 1.041264
400.800 1.062863
400.900 1.074468
401.000 1.078337
401.100 1.077531
401.200 1.073340
401.300 1.071728
401.400 1.073179
401.500 1.081399
401.600 1.087685
401.700 1.092037
401.800 1.097357
401.900 1.101547
402.000 1.107189
402.100 1.104449
402.200 1.098968
402.300 1.091231
402.400 1.082850
402.500 1.083333
402.600 1.093166
402.700 1.109607
402.800 1.109768
402.900 1.099130
403.000 1.078014
403.100 1.062379
403.200 1.054965
403.300 1.057866
403.400 1.068182
403.500 1.085429
403.600 1.104771
403.700 1.125725
403.800 1.132495
403.900 1.127660
404.000 1.120084
404.100 1.115248
404.200 1.114603
404.300 1.104610
404.400 1.073985
404.500 1.047872
404.600 1.043843
404.700 1.065119
404.800 1.093327
404.900 1.111702
405.000 1.113153
405.100 1.115732
405.200 1.110251
405.300 1.100419
405.400 1.090426
405.500 1.085106
405.600 1.087524
405.700 1.088008
405.800 1.091231
405.900 1.106383
406.000 1.115732
406.100 1.105577
406.200 1.076241
406.300 1.050129
406.400 1.039007
406.500 1.038201
406.600 1.044326
406.700 1.050613
406.800 1.054159
406.900 1.052708
407.000 1.044165
407.100 1.027240
407.200 1.018053
407.300 1.025306
407.400 1.034655
407.500 1.032076
407.600 1.007253
407.700 0.984526
407.800 0.975338
407.900 0.990651
408.000 1.015796
408.100 1.034010
408.200 1.034494
408.300 1.024984
408.400 1.013217
408.500 1.003707
408.600 1.006447
408.700 1.011283
408.800 1.016280
408.900 1.016280
409.000 1.006770
409.100 1.000161
409.200 0.995648
409.300 0.979529
409.400 0.962444
409.500 0.930529
409.600 0.903127
409.700 0.872340
409.800 0.829787
409.900 0.775790
410.000 0.690361
410.100 0.631850
410.200 0.622018
410.300 0.677305
410.400 0.751612
410.500 0.824790
410.600 0.864281
410.700 0.896196
410.800 0.913282
410.900 0.927789
411.000 0.944552
411.100 0.958575
411.200 0.976789
411.300 0.990490
411.400 1.005319
411.500 1.019665
411.600 1.025629
411.700 1.022727
411.800 1.015635
411.900 1.009188
412.000 1.010961
412.100 1.019342
412.200 1.029014
412.300 1.037234
412.400 1.044971
412.500 1.048517
412.600 1.048517
412.700 1.046583
412.800 1.046744
412.900 1.050290
413.000 1.049645
413.100 1.038846
413.200 1.026273
413.300 1.027240
413.400 1.040780
413.500 1.056576
413.600 1.069955
413.700 1.081077
413.800 1.093166
413.900 1.103965
414.000 1.103643
414.100 1.089458
414.200 1.067215
414.300 1.048034
414.400 1.045616
414.500 1.055932
414.600 1.072695
414.700 1.078337
414.800 1.081238
414.900 1.083978
415.000 1.086718
415.100 1.089942
415.200 1.085590
415.300 1.078014
415.400 1.069955
415.500 1.064313
