# Wavelength (nm)   F_lamA (normalized erg/cm2/s/A)9.100 0.000157
9.400 0.000203
9.600 0.000238
9.800 0.000278
10.000 0.000322
10.200 0.000370
10.400 0.000423
10.600 0.000481
10.800 0.000544
11.000 0.000611
11.400 0.000762
11.800 0.000933
12.100 0.001074
12.500 0.001280
12.700 0.001390
12.800 0.001447
13.100 0.001625
13.200 0.001686
13.400 0.001812
13.700 0.002009
14.000 0.002215
14.300 0.002430
14.700 0.002728
15.100 0.003037
15.500 0.003357
15.900 0.003685
16.200 0.003936
16.600 0.004275
17.000 0.004616
17.300 0.004875
17.700 0.005221
18.000 0.005480
18.200 0.005653
18.600 0.005997
19.100 0.006421
19.400 0.006672
19.800 0.007003
20.200 0.007328
20.500 0.007565
21.000 0.007955
21.600 0.008403
22.000 0.008688
22.300 0.008899
22.700 0.009168
23.000 0.052747
23.400 0.051787
24.000 0.050533
24.600 0.049493
25.200 0.048427
25.700 0.046827
26.000 0.046853
26.400 0.046667
26.900 0.045547
27.400 0.044427
27.900 0.043173
28.400 0.042213
29.000 0.040907
29.600 0.039413
30.100 0.037547
30.800 0.036800
31.800 0.035520
32.800 0.033760
33.800 0.032053
34.800 0.030427
35.700 0.029147
36.600 0.027920
37.500 0.026667
38.500 0.025272
39.500 0.024155
40.500 0.023045
41.400 0.022067
42.200 0.021205
43.000 0.020403
44.100 0.019421
45.100 0.018539
46.000 0.017760
47.000 0.016971
48.000 0.016243
49.000 0.015504
50.000 0.014872
50.600 0.014800
51.200 0.015088
52.000 0.014581
53.000 0.014003
54.000 0.013333
55.000 0.012845
56.000 0.012488
57.000 0.012029
58.000 0.011533
59.000 0.011152
60.000 0.010712
61.000 0.010299
62.000 0.010013
63.000 0.009656
64.000 0.009339
65.000 0.009008
65.800 0.008733
66.500 0.008563
67.500 0.008299
68.500 0.007979
69.500 0.007771
70.500 0.007469
71.600 0.007272
72.600 0.007053
73.500 0.006864
74.500 0.006645
75.500 0.006445
76.500 0.006237
77.500 0.006072
78.500 0.005899
79.500 0.005733
80.500 0.005579
81.500 0.005429
82.500 0.005291
83.500 0.005093
84.500 0.005011
85.500 0.004880
86.500 0.004765
87.500 0.004651
88.500 0.004536
89.500 0.004427
90.500 0.004312
91.500 0.005280
92.500 0.007413
93.500 0.009229
94.500 0.012224
95.500 0.017616
96.500 0.023171
97.500 0.011005
98.500 0.157280
99.500 0.506400
100.500 0.443733
101.500 0.074320
102.500 0.010221
103.500 0.052987
104.500 0.504267
105.500 1.101333
106.500 1.349867
107.500 1.605600
108.500 1.642933
109.500 1.686400
110.500 1.708533
111.500 1.683733
112.500 1.618133
113.500 1.629333
114.500 1.512267
115.500 1.401333
116.500 1.315733
117.500 1.077600
118.500 0.741067
119.500 0.256347
120.500 0.041040
121.500 0.010869
122.500 0.031600
123.500 0.252613
124.500 0.674133
125.500 1.006400
126.500 1.066400
127.500 1.342133
128.500 1.501333
129.500 1.554133
130.500 1.528267
131.500 1.664800
132.500 1.689600
133.500 1.694667
134.500 1.775200
135.500 1.734933
136.500 1.720533
137.500 1.741867
138.500 1.775200
139.500 1.780000
140.500 1.779733
141.500 1.754933
142.500 1.758400
143.500 1.718133
144.200 1.763467
144.700 1.761333
145.500 1.762133
146.500 1.723200
147.500 1.728267
148.500 1.720800
149.500 1.703467
150.500 1.718933
151.200 1.704533
151.700 1.708533
152.500 1.667200
153.500 1.645067
154.500 1.682133
155.500 1.634667
156.500 1.548000
157.500 1.592533
158.500 1.619733
159.500 1.647467
160.500 1.584267
161.500 1.588000
162.500 1.520000
163.500 1.528533
164.500 1.545600
165.500 1.441067
166.500 1.559200
167.200 1.470667
167.700 1.504800
168.500 1.537867
169.500 1.499200
170.500 1.477867
171.500 1.492800
172.500 1.468800
173.500 1.501067
174.500 1.466933
175.500 1.489867
176.500 1.418667
177.500 1.471200
178.500 1.445867
179.500 1.464000
180.500 1.466667
181.500 1.452800
182.500 1.433600
183.500 1.425333
184.500 1.392000
185.500 1.394667
186.500 1.387733
187.500 1.392267
188.500 1.385333
189.500 1.378667
190.500 1.367467
191.500 1.357067
192.500 1.357333
193.500 1.329333
194.500 1.354133
195.500 1.343200
196.700 1.341600
197.600 1.321867
198.400 1.316267
199.500 1.301867
200.500 1.282400
201.500 1.262400
202.500 1.255733
203.500 1.268267
204.500 1.267733
205.500 1.237867
206.500 1.235200
207.400 1.250400
207.800 1.248800
208.500 1.245333
209.500 1.229867
210.500 1.222133
211.500 1.217867
212.500 1.212000
213.500 1.181333
214.500 1.200000
215.500 1.187733
216.500 1.157333
217.500 1.154133
218.500 1.158400
219.500 1.177867
220.500 1.149867
221.500 1.121067
222.500 1.113867
223.500 1.151733
224.500 1.124000
225.500 1.098133
226.500 1.084800
227.500 1.108533
228.500 1.111733
229.500 1.085333
230.500 1.093067
231.500 1.084000
232.500 1.003200
233.500 1.062933
234.500 1.008800
235.500 1.056800
236.500 1.009867
237.500 1.034933
238.500 0.976267
239.500 1.015733
240.500 1.001600
241.500 1.002667
242.500 1.027200
243.500 1.005067
244.500 1.016800
245.500 1.012800
246.500 0.995200
247.500 0.982667
248.500 0.990133
249.500 0.973067
250.500 1.007467
251.300 0.976533
251.800 0.969867
252.500 0.944533
253.500 0.936800
254.500 0.940000
255.500 0.969867
256.500 0.961600
257.500 0.979467
258.500 0.980267
259.500 0.970667
260.500 0.954933
261.500 0.942133
262.500 0.953600
263.500 0.959200
264.500 1.001600
265.500 1.000000
266.500 0.973600
267.500 0.985333
268.500 0.989067
269.500 0.968800
270.500 0.968267
271.500 0.946667
272.500 0.944267
273.500 0.956800
274.500 0.903467
275.500 0.912267
276.500 0.935733
277.500 0.952267
278.500 0.940267
279.500 0.825333
280.500 0.866400
281.500 0.955467
282.500 0.951200
283.500 0.938667
284.500 0.928000
285.500 0.906133
286.500 0.928000
287.500 0.924533
288.500 0.929600
289.500 0.929067
291.000 0.941867
293.000 0.926133
295.000 0.918133
297.000 0.916800
299.000 0.914933
301.000 0.913867
303.000 0.909600
305.000 0.905600
307.000 0.898667
309.000 0.895467
311.000 0.888533
313.000 0.882667
315.000 0.879467
317.000 0.876800
319.000 0.860000
321.000 0.863200
323.000 0.852267
325.000 0.856533
327.000 0.859467
329.000 0.856267
331.000 0.852800
332.200 0.737067
332.300 0.740000
332.400 0.741867
332.500 0.738400
332.600 0.729067
332.700 0.718933
332.800 0.734400
332.900 0.747733
333.000 0.760000
333.100 0.765333
333.200 0.761067
333.300 0.748000
333.400 0.732267
333.500 0.730933
333.600 0.718667
333.700 0.708000
333.800 0.715467
333.900 0.720533
334.000 0.726400
334.100 0.727200
334.200 0.722933
334.300 0.736533
334.400 0.749333
334.500 0.747467
334.600 0.739200
334.700 0.723200
334.800 0.700533
334.900 0.687467
335.000 0.692000
335.100 0.700800
335.200 0.706400
335.300 0.710133
335.400 0.713067
335.500 0.724000
335.600 0.731733
335.700 0.732800
335.800 0.721867
335.900 0.707733
336.000 0.692267
336.100 0.688800
336.200 0.700000
336.300 0.710667
336.400 0.714933
336.500 0.704533
336.600 0.695200
336.700 0.692000
336.800 0.691200
336.900 0.690667
337.000 0.686133
337.100 0.683200
337.200 0.673333
337.300 0.673600
337.400 0.680000
337.500 0.697600
337.600 0.718400
337.700 0.718667
337.800 0.707200
337.900 0.697600
338.000 0.695467
338.100 0.700800
338.200 0.707467
338.300 0.718133
338.400 0.719467
338.500 0.721600
338.600 0.717333
338.700 0.705867
338.800 0.699200
338.900 0.711467
339.000 0.726400
339.100 0.737867
339.200 0.733333
339.300 0.717867
339.400 0.723467
339.500 0.736533
339.600 0.748000
339.700 0.754133
339.800 0.757600
339.900 0.746133
340.000 0.730400
340.100 0.718933
340.200 0.707733
340.300 0.707467
340.400 0.707200
340.500 0.711200
340.600 0.704000
340.700 0.695467
340.800 0.700267
340.900 0.705867
341.000 0.713333
341.100 0.709867
341.200 0.706667
341.300 0.715467
341.400 0.721867
341.500 0.721600
341.600 0.713867
341.700 0.708533
341.800 0.717067
341.900 0.727467
342.000 0.736800
342.100 0.737867
342.200 0.730133
342.300 0.718400
342.400 0.710933
342.500 0.714400
342.600 0.717867
342.700 0.723467
342.800 0.729867
342.900 0.735200
343.000 0.734133
343.100 0.724533
343.200 0.715200
343.300 0.712000
343.400 0.720533
343.500 0.732000
343.600 0.735733
343.700 0.732533
343.800 0.725600
343.900 0.719467
344.000 0.712267
344.100 0.701333
344.200 0.695733
344.300 0.692000
344.400 0.693333
344.500 0.704267
344.600 0.719200
344.700 0.732267
344.800 0.743200
344.900 0.753867
345.000 0.739467
345.100 0.716533
345.200 0.699467
345.300 0.692267
345.400 0.704000
345.500 0.704800
345.600 0.696000
345.700 0.693333
345.800 0.692267
345.900 0.697067
346.000 0.697867
346.100 0.697600
346.200 0.700000
346.300 0.705333
346.400 0.702667
346.500 0.697333
346.600 0.701067
346.700 0.710133
346.800 0.716000
346.900 0.721600
347.000 0.725067
347.100 0.724800
347.200 0.716533
347.300 0.701867
347.400 0.693067
347.500 0.687200
347.600 0.691200
347.700 0.702667
347.800 0.710133
347.900 0.717600
348.000 0.724800
348.100 0.719467
348.200 0.710667
348.300 0.705867
348.400 0.706933
348.500 0.718400
348.600 0.729600
348.700 0.730933
348.800 0.722667
348.900 0.712533
349.000 0.706400
349.100 0.709067
349.200 0.714133
349.300 0.713867
349.400 0.711733
349.500 0.706667
349.600 0.700800
349.700 0.702133
349.800 0.703200
349.900 0.706133
350.000 0.701333
350.100 0.693333
350.200 0.693333
350.300 0.694133
350.400 0.695200
350.500 0.694933
350.600 0.694400
350.700 0.694667
350.800 0.690400
350.900 0.687733
351.000 0.690667
351.100 0.694933
351.200 0.697600
351.300 0.694133
351.400 0.688267
351.500 0.691467
351.600 0.698933
351.700 0.704800
351.800 0.708533
351.900 0.705333
352.000 0.701600
352.100 0.700000
352.200 0.696800
352.300 0.694667
352.400 0.691467
352.500 0.688800
352.600 0.692800
352.700 0.698933
352.800 0.705600
352.900 0.712800
353.000 0.720800
353.100 0.726133
353.200 0.723733
353.300 0.713067
353.400 0.706400
353.500 0.701867
353.600 0.704000
353.700 0.704000
353.800 0.700800
353.900 0.708800
354.000 0.713333
354.100 0.710933
354.200 0.712533
354.300 0.720800
354.400 0.723733
354.500 0.722133
354.600 0.719467
354.700 0.715467
354.800 0.715467
354.900 0.712800
355.000 0.713867
355.100 0.723200
355.200 0.722667
355.300 0.712000
355.400 0.704800
355.500 0.705867
355.600 0.713333
355.700 0.722667
355.800 0.724800
355.900 0.724267
356.000 0.722667
356.100 0.720267
356.200 0.719467
356.300 0.714933
356.400 0.707200
356.500 0.704000
356.600 0.701867
356.700 0.701333
356.800 0.696267
356.900 0.691733
357.000 0.691200
357.100 0.686667
357.200 0.679200
357.300 0.672533
357.400 0.673333
357.500 0.679733
357.600 0.684800
357.700 0.685867
357.800 0.686667
357.900 0.684533
358.000 0.682133
358.100 0.678133
358.200 0.675733
358.300 0.678667
358.400 0.673600
358.500 0.664800
358.600 0.655200
358.700 0.651467
358.800 0.658133
358.900 0.669600
359.000 0.677600
359.100 0.679200
359.200 0.678133
359.300 0.677600
359.400 0.679200
359.500 0.685333
359.600 0.689867
359.700 0.690400
359.800 0.692533
359.900 0.699200
360.000 0.701067
360.100 0.694933
360.200 0.687467
360.300 0.680533
360.400 0.679200
360.500 0.683467
360.600 0.688267
360.700 0.685333
360.800 0.682133
360.900 0.684533
361.000 0.685867
361.100 0.688000
361.200 0.688000
361.300 0.687733
361.400 0.691467
361.500 0.699733
361.600 0.702933
361.700 0.701333
361.800 0.695733
361.900 0.690933
362.000 0.694400
362.100 0.697333
362.200 0.700533
362.300 0.702133
362.400 0.704800
362.500 0.713600
362.600 0.724267
362.700 0.730133
362.800 0.724267
362.900 0.715467
363.000 0.702667
363.100 0.693600
363.200 0.697333
363.300 0.710933
363.400 0.719467
363.500 0.718133
363.600 0.712267
363.700 0.705333
363.800 0.703200
363.900 0.707200
364.000 0.711467
364.100 0.708267
364.200 0.701067
364.300 0.693067
364.400 0.690133
364.500 0.692800
364.600 0.691467
364.700 0.690133
364.800 0.691200
364.900 0.690400
365.000 0.690400
365.100 0.692800
365.200 0.700000
365.300 0.704267
365.400 0.707733
365.500 0.712000
365.600 0.715733
365.700 0.716533
365.800 0.715467
365.900 0.714400
366.000 0.710133
366.100 0.702933
366.200 0.700267
366.300 0.701600
366.400 0.705600
366.500 0.709600
366.600 0.710133
366.700 0.706667
366.800 0.701600
366.900 0.695733
367.000 0.695467
367.100 0.700267
367.200 0.710667
367.300 0.714667
367.400 0.709867
367.500 0.703200
367.600 0.692800
367.700 0.688267
367.800 0.686667
367.900 0.687467
368.000 0.691733
368.100 0.695200
368.200 0.693333
368.300 0.688800
368.400 0.682400
368.500 0.677067
368.600 0.676533
368.700 0.677600
368.800 0.691200
368.900 0.706667
369.000 0.706933
369.100 0.697333
369.200 0.693600
369.300 0.702933
369.400 0.714933
369.500 0.717867
369.600 0.701600
369.700 0.686133
369.800 0.694400
369.900 0.728000
370.000 0.766400
370.100 0.768000
370.200 0.733067
370.300 0.679200
370.400 0.650400
370.500 0.656000
370.600 0.692000
370.700 0.737067
370.800 0.761867
370.900 0.749333
371.000 0.704267
371.100 0.664533
371.200 0.637867
371.300 0.655467
371.400 0.710667
371.500 0.780000
371.600 0.831200
371.700 0.861067
371.800 0.848000
371.900 0.792000
372.000 0.707733
372.100 0.638133
372.200 0.602667
372.300 0.628000
372.400 0.703200
372.500 0.784000
372.600 0.852267
372.700 0.903733
372.800 0.927200
372.900 0.929600
373.000 0.905867
373.100 0.848267
373.200 0.757333
373.300 0.669333
373.400 0.591733
373.500 0.575200
373.600 0.616533
373.700 0.698667
373.800 0.795200
373.900 0.903200
374.000 0.968267
374.100 1.017600
374.200 1.034400
374.300 1.028533
374.400 1.001067
374.500 0.960000
374.600 0.895200
374.700 0.821067
374.800 0.730400
374.900 0.642133
375.000 0.593067
375.100 0.591733
375.200 0.646667
375.300 0.752800
375.400 0.857067
375.500 0.937600
375.600 1.004267
375.700 1.041600
375.800 1.071467
375.900 1.089600
376.000 1.098933
376.100 1.106400
376.200 1.102667
376.300 1.083733
376.400 1.059733
376.500 1.012267
376.600 0.950667
376.700 0.872267
376.800 0.762667
376.900 0.672000
377.000 0.591467
377.100 0.569067
377.200 0.609867
377.300 0.701333
377.400 0.784533
377.500 0.881067
377.600 0.958133
377.700 1.036000
377.800 1.112000
377.900 1.167467
378.000 1.225333
378.100 1.260533
378.200 1.286667
378.300 1.302933
378.400 1.310400
378.500 1.308800
378.600 1.300800
378.700 1.277600
378.800 1.250933
378.900 1.217867
379.000 1.174400
379.100 1.130133
379.200 1.063200
379.300 0.993067
379.400 0.904000
379.500 0.800800
379.600 0.704800
379.700 0.607200
379.800 0.565333
379.900 0.580000
380.000 0.653867
380.100 0.755733
380.200 0.874400
380.300 0.954133
380.400 1.041333
380.500 1.101867
380.600 1.158667
380.700 1.218667
380.800 1.262667
380.900 1.311200
381.000 1.345600
381.100 1.372267
381.200 1.381333
381.300 1.383200
381.400 1.383200
381.500 1.389067
381.600 1.397333
381.700 1.407467
381.800 1.405867
381.900 1.382133
382.000 1.362933
382.100 1.344800
382.200 1.337600
382.300 1.325600
382.400 1.291733
382.500 1.253867
382.600 1.205333
382.700 1.160800
382.800 1.103467
382.900 1.040800
383.000 0.978933
383.100 0.893867
383.200 0.814667
383.300 0.708800
383.400 0.615733
383.500 0.556533
383.600 0.544000
383.700 0.585867
383.800 0.669867
383.900 0.756533
384.000 0.850400
384.100 0.949333
384.200 1.030400
384.300 1.118400
384.400 1.178400
384.500 1.238667
384.600 1.290667
384.700 1.330667
384.800 1.368800
384.900 1.390667
385.000 1.412533
385.100 1.435733
385.200 1.462133
385.300 1.487200
385.400 1.496533
385.500 1.497867
385.600 1.493600
385.700 1.491733
385.800 1.497600
385.900 1.510667
386.000 1.524800
386.100 1.535467
386.200 1.536267
386.300 1.523200
386.400 1.511733
386.500 1.505067
386.600 1.508533
386.700 1.511733
386.800 1.513333
386.900 1.507733
387.000 1.489867
387.100 1.470933
387.200 1.442667
387.300 1.425333
387.400 1.411200
387.500 1.397067
387.600 1.377067
387.700 1.337333
387.800 1.300267
387.900 1.258400
388.000 1.226133
388.100 1.190933
388.200 1.134400
388.300 1.073867
388.400 0.990933
388.500 0.909600
388.600 0.813067
388.700 0.699467
388.800 0.618133
388.900 0.569067
389.000 0.589067
389.100 0.661867
389.200 0.759733
389.300 0.845333
389.400 0.938400
389.500 1.004533
389.600 1.080533
389.700 1.142933
389.800 1.195733
389.900 1.244267
390.000 1.276533
390.100 1.318933
390.200 1.358133
390.300 1.393867
390.400 1.419200
390.500 1.437333
390.600 1.461600
390.700 1.486400
390.800 1.517867
390.900 1.547467
391.000 1.565067
391.100 1.572533
391.200 1.569867
391.300 1.561067
391.400 1.555200
391.500 1.564000
391.600 1.583733
391.700 1.590400
391.800 1.593333
391.900 1.590400
392.000 1.592533
392.100 1.597067
392.200 1.598133
392.300 1.602400
392.400 1.603733
392.500 1.604000
392.600 1.598400
392.700 1.585867
392.800 1.565600
392.900 1.543733
393.000 1.513067
393.100 1.449333
393.200 1.350133
393.300 1.242400
393.400 1.217600
393.500 1.279200
393.600 1.382933
393.700 1.478400
393.800 1.540000
393.900 1.563467
394.000 1.570667
394.100 1.576800
394.200 1.577333
394.300 1.575467
394.400 1.571200
394.500 1.556800
394.600 1.545333
394.700 1.534667
394.800 1.519200
394.900 1.508800
395.000 1.500267
395.100 1.488800
395.200 1.474667
395.300 1.462667
395.400 1.446133
395.500 1.420533
395.600 1.394133
395.700 1.362400
395.800 1.335733
395.900 1.301333
396.000 1.259733
396.100 1.210933
396.200 1.148533
396.300 1.096533
396.400 1.025333
396.500 0.941067
396.600 0.837333
396.700 0.702133
396.800 0.596800
396.900 0.510400
397.000 0.494133
397.100 0.535733
397.200 0.624533
397.300 0.717867
397.400 0.824533
397.500 0.903733
397.600 0.988267
397.700 1.058933
397.800 1.120800
397.900 1.186933
398.000 1.228800
398.100 1.273867
398.200 1.308800
398.300 1.340533
398.400 1.373333
398.500 1.398133
398.600 1.421067
398.700 1.440533
398.800 1.462933
398.900 1.480533
399.000 1.493600
399.100 1.508533
399.200 1.516000
399.300 1.528800
399.400 1.539467
399.500 1.546933
399.600 1.552000
399.700 1.549067
399.800 1.548533
399.900 1.558133
400.000 1.564800
400.100 1.567200
400.200 1.566667
400.300 1.561600
400.400 1.559733
400.500 1.556800
400.600 1.557333
400.700 1.563467
400.800 1.573867
400.900 1.581867
401.000 1.585600
401.100 1.585067
401.200 1.585067
401.300 1.586133
401.400 1.585867
401.500 1.591200
401.600 1.599467
401.700 1.608533
401.800 1.617333
401.900 1.619733
402.000 1.618667
402.100 1.617333
402.200 1.613333
402.300 1.606400
402.400 1.595733
402.500 1.586133
402.600 1.580267
402.700 1.584533
402.800 1.592000
402.900 1.598667
403.000 1.602933
403.100 1.603467
403.200 1.604800
403.300 1.605333
403.400 1.609067
403.500 1.618133
403.600 1.628000
403.700 1.637333
403.800 1.634400
403.900 1.625867
404.000 1.616000
404.100 1.612267
404.200 1.616000
404.300 1.616800
404.400 1.604800
404.500 1.585600
404.600 1.574400
404.700 1.582933
404.800 1.598933
404.900 1.609067
405.000 1.610133
405.100 1.613067
405.200 1.613867
405.300 1.603733
405.400 1.590933
405.500 1.587733
405.600 1.590400
405.700 1.599200
405.800 1.599733
405.900 1.601067
406.000 1.604800
406.100 1.598667
406.200 1.582933
406.300 1.566667
406.400 1.557333
406.500 1.545333
406.600 1.541067
406.700 1.538400
406.800 1.533867
406.900 1.534133
407.000 1.522933
407.100 1.499467
407.200 1.485867
407.300 1.483200
407.400 1.489067
407.500 1.489600
407.600 1.476267
407.700 1.461333
407.800 1.449867
407.900 1.450400
408.000 1.452800
408.100 1.445600
408.200 1.439200
408.300 1.426400
408.400 1.413600
408.500 1.395200
408.600 1.374133
408.700 1.356533
408.800 1.333867
408.900 1.315200
409.000 1.283200
409.100 1.252533
409.200 1.220800
409.300 1.176267
409.400 1.136800
409.500 1.076533
409.600 1.016267
409.700 0.948267
409.800 0.866933
409.900 0.785067
410.000 0.681600
410.100 0.611467
410.200 0.581333
410.300 0.618667
410.400 0.693067
410.500 0.790400
410.600 0.862133
410.700 0.940533
410.800 1.004267
410.900 1.062400
411.000 1.122133
411.100 1.161333
411.200 1.205333
411.300 1.239467
411.400 1.272000
411.500 1.303733
411.600 1.329600
411.700 1.352533
411.800 1.366667
411.900 1.379733
412.000 1.388533
412.100 1.400267
412.200 1.412267
412.300 1.425600
412.400 1.441867
412.500 1.453600
412.600 1.458667
412.700 1.459733
412.800 1.458133
412.900 1.457067
413.000 1.455200
413.100 1.455467
413.200 1.461333
413.300 1.470667
413.400 1.488000
413.500 1.498933
413.600 1.507200
413.700 1.516000
413.800 1.522667
413.900 1.529867
414.000 1.529333
414.100 1.521600
414.200 1.511733
414.300 1.501867
414.400 1.500800
414.500 1.504800
414.600 1.515200
414.700 1.520000
414.800 1.522667
414.900 1.524533
415.000 1.528800
415.100 1.534133
415.200 1.533600
415.300 1.529333
415.400 1.523200
415.500 1.521867
