# Wavelength (nm)   F_lamA (normalized erg/cm2/s/A)9.100 0.000024
9.400 0.000036
9.600 0.000046
9.800 0.000059
10.000 0.000075
10.200 0.000094
10.400 0.000116
10.600 0.000142
10.800 0.000172
11.000 0.000208
11.400 0.000294
11.800 0.000406
12.100 0.000508
12.500 0.000671
12.700 0.000765
12.800 0.000815
13.100 0.000980
13.200 0.001040
13.400 0.001166
13.700 0.001375
14.000 0.001607
14.300 0.001862
14.700 0.002240
15.100 0.002663
15.500 0.003128
15.900 0.003636
16.200 0.004045
16.600 0.004626
17.000 0.005248
17.300 0.005737
17.700 0.006422
18.000 0.006960
18.200 0.007325
18.600 0.008080
19.100 0.009063
19.400 0.009671
19.800 0.010499
20.200 0.011344
20.500 0.011985
21.000 0.013072
21.600 0.014394
22.000 0.015277
22.300 0.015943
22.700 0.016829
23.000 0.151101
23.400 0.149818
24.000 0.148753
24.600 0.148535
25.200 0.147688
25.700 0.140862
26.000 0.143839
26.400 0.143791
26.900 0.141394
27.400 0.139119
27.900 0.135657
28.400 0.134011
29.000 0.130719
29.600 0.126120
30.100 0.117938
30.800 0.116146
31.800 0.115372
32.800 0.110796
33.800 0.105786
34.800 0.101089
35.700 0.097603
36.600 0.094311
37.500 0.090559
38.500 0.085790
39.500 0.082982
40.500 0.079835
41.400 0.076834
42.200 0.073977
43.000 0.071484
44.100 0.068627
45.100 0.065819
46.000 0.063157
47.000 0.060591
48.000 0.058339
49.000 0.055773
50.000 0.053861
50.600 0.053740
51.200 0.055483
52.000 0.053692
53.000 0.051707
54.000 0.049116
55.000 0.047398
56.000 0.046502
57.000 0.044953
58.000 0.043137
59.000 0.041878
60.000 0.040232
61.000 0.038683
62.000 0.037860
63.000 0.036529
64.000 0.035464
65.000 0.034253
65.800 0.033212
66.500 0.032704
67.500 0.031760
68.500 0.030501
69.500 0.029847
70.500 0.028637
71.600 0.028056
72.600 0.027282
73.500 0.026580
74.500 0.025756
75.500 0.025006
76.500 0.024188
77.500 0.023636
78.500 0.022970
79.500 0.022372
80.500 0.021823
81.500 0.021271
82.500 0.020755
83.500 0.019920
84.500 0.019695
85.500 0.019172
86.500 0.018763
87.500 0.018313
88.500 0.017865
89.500 0.017432
90.500 0.016950
91.500 0.019956
92.500 0.028419
93.500 0.036650
94.500 0.049189
95.500 0.053425
96.500 0.059743
97.500 0.039724
98.500 0.059961
99.500 0.059622
100.500 0.060905
101.500 0.055773
102.500 0.037255
103.500 0.051489
104.500 0.059187
105.500 0.065335
106.500 0.066788
107.500 0.071581
108.500 0.069475
109.500 0.071605
110.500 0.072815
111.500 0.071678
112.500 0.068531
113.500 0.068724
114.500 0.064367
115.500 0.060687
116.500 0.057177
117.500 0.048197
118.500 0.045510
119.500 0.040402
120.500 0.036843
121.500 0.024885
122.500 0.035899
123.500 0.038393
124.500 0.040620
125.500 0.045050
126.500 0.047519
127.500 0.053207
128.500 0.057710
129.500 0.059187
130.500 0.059477
131.500 0.064004
132.500 0.065723
133.500 0.066521
134.500 0.070225
135.500 0.069765
136.500 0.070201
137.500 0.072089
138.500 0.073977
139.500 0.074558
140.500 0.075018
141.500 0.076737
142.500 0.077052
143.500 0.075793
144.200 0.079763
144.700 0.079351
145.500 0.081699
146.500 0.079158
147.500 0.080610
148.500 0.081457
149.500 0.082232
150.500 0.084314
151.200 0.083781
151.700 0.083491
152.500 0.083757
153.500 0.083612
154.500 0.085088
155.500 0.085500
156.500 0.082329
157.500 0.088816
158.500 0.094432
159.500 0.098693
160.500 0.092689
161.500 0.098765
162.500 0.096926
163.500 0.099467
164.500 0.110966
165.500 0.096296
166.500 0.121496
167.200 0.107843
167.700 0.124982
168.500 0.132801
169.500 0.130259
170.500 0.134762
171.500 0.144541
172.500 0.146284
173.500 0.156282
174.500 0.155144
175.500 0.164754
176.500 0.149625
177.500 0.163253
178.500 0.167296
179.500 0.178601
180.500 0.201331
181.500 0.203244
182.500 0.194771
183.500 0.201840
184.500 0.183830
185.500 0.195280
186.500 0.205858
187.500 0.206294
188.500 0.209102
189.500 0.216195
190.500 0.210869
191.500 0.221206
192.500 0.226870
193.500 0.212491
194.500 0.234181
195.500 0.236069
196.700 0.247640
197.600 0.241903
198.400 0.241515
199.500 0.241540
200.500 0.232825
201.500 0.239627
202.500 0.224110
203.500 0.248608
204.500 0.260228
205.500 0.256839
206.500 0.255386
207.400 0.274994
207.800 0.275236
208.500 0.274268
209.500 0.268700
210.500 0.264101
211.500 0.273784
212.500 0.273784
213.500 0.258533
214.500 0.279109
215.500 0.276204
216.500 0.264343
217.500 0.266037
218.500 0.278867
219.500 0.298717
220.500 0.290729
221.500 0.275720
222.500 0.286855
223.500 0.314936
224.500 0.298717
225.500 0.284677
226.500 0.275478
227.500 0.294844
228.500 0.305253
229.500 0.289518
230.500 0.306463
231.500 0.309610
232.500 0.282014
233.500 0.297749
234.500 0.265069
235.500 0.317599
236.500 0.280320
237.500 0.305495
238.500 0.256839
239.500 0.288550
240.500 0.284435
241.500 0.288792
242.500 0.329218
243.500 0.321472
244.500 0.335996
245.500 0.335270
246.500 0.336480
247.500 0.319535
248.500 0.307432
249.500 0.307916
250.500 0.352215
251.300 0.313241
251.800 0.287582
252.500 0.280804
253.500 0.297023
254.500 0.302590
255.500 0.337449
256.500 0.334786
257.500 0.360930
258.500 0.361656
259.500 0.356088
260.500 0.343742
261.500 0.329218
262.500 0.363834
263.500 0.381506
264.500 0.431615
265.500 0.444687
266.500 0.414427
267.500 0.434762
268.500 0.448318
269.500 0.417090
270.500 0.428468
271.500 0.398209
272.500 0.400145
273.500 0.421448
274.500 0.362866
275.500 0.388526
276.500 0.424595
277.500 0.442508
278.500 0.419753
279.500 0.266037
280.500 0.308642
281.500 0.465021
282.500 0.472525
283.500 0.465263
284.500 0.447107
285.500 0.387557
286.500 0.462842
287.500 0.468410
288.500 0.476640
289.500 0.483902
291.000 0.514887
293.000 0.507625
295.000 0.501331
297.000 0.506173
299.000 0.514645
301.000 0.519003
303.000 0.526023
305.000 0.536916
307.000 0.535221
309.000 0.535464
311.000 0.540305
313.000 0.542484
315.000 0.544662
317.000 0.556766
319.000 0.539337
321.000 0.557734
323.000 0.546599
325.000 0.577342
327.000 0.603486
329.000 0.606149
331.000 0.608085
332.200 0.584846
332.300 0.548293
332.400 0.541515
332.500 0.554587
332.600 0.551198
332.700 0.537158
332.800 0.542000
332.900 0.552893
333.000 0.577584
333.100 0.595013
333.200 0.589930
333.300 0.592108
333.400 0.579279
333.500 0.569838
333.600 0.553619
333.700 0.544420
333.800 0.557734
333.900 0.572259
334.000 0.578794
334.100 0.579763
334.200 0.573953
334.300 0.587267
334.400 0.603244
334.500 0.597918
334.600 0.586057
334.700 0.554587
334.800 0.531832
334.900 0.520455
335.000 0.547567
335.100 0.561365
335.200 0.549504
335.300 0.544178
335.400 0.557492
335.500 0.589204
335.600 0.593561
335.700 0.572501
335.800 0.522634
335.900 0.478092
336.000 0.452917
336.100 0.465989
336.200 0.495522
336.300 0.534737
336.400 0.563786
336.500 0.553619
336.600 0.542242
336.700 0.540063
336.800 0.534495
336.900 0.533769
337.000 0.496490
337.100 0.464536
337.200 0.463326
337.300 0.489228
337.400 0.523602
337.500 0.554829
337.600 0.570806
337.700 0.565723
337.800 0.547809
337.900 0.533043
338.000 0.534253
338.100 0.542242
338.200 0.545873
338.300 0.553377
338.400 0.563544
338.500 0.575405
338.600 0.567417
338.700 0.537884
338.800 0.520213
338.900 0.547083
339.000 0.570564
339.100 0.588235
339.200 0.569112
339.300 0.544420
339.400 0.552651
339.500 0.570080
339.600 0.595013
339.700 0.607601
339.800 0.617526
339.900 0.625030
340.000 0.622852
340.100 0.613169
340.200 0.584362
340.300 0.575405
340.400 0.568627
340.500 0.577584
340.600 0.580489
340.700 0.566691
340.800 0.545146
340.900 0.548778
341.000 0.573711
341.100 0.570564
341.200 0.562092
341.300 0.546599
341.400 0.550230
341.500 0.573469
341.600 0.589446
341.700 0.597434
341.800 0.599129
341.900 0.599855
342.000 0.604454
342.100 0.605664
342.200 0.591140
342.300 0.569596
342.400 0.561365
342.500 0.568627
342.600 0.575405
342.700 0.585330
342.800 0.605180
342.900 0.625514
343.000 0.640523
343.100 0.620431
343.200 0.595740
343.300 0.582426
343.400 0.595740
343.500 0.624062
343.600 0.627451
343.700 0.608811
343.800 0.588477
343.900 0.570564
344.000 0.559671
344.100 0.545389
344.200 0.538126
344.300 0.539337
344.400 0.549262
344.500 0.561123
344.600 0.583636
344.700 0.613169
344.800 0.632292
344.900 0.641733
345.000 0.620915
345.100 0.588477
345.200 0.564754
345.300 0.562818
345.400 0.576132
345.500 0.590898
345.600 0.596466
345.700 0.599371
345.800 0.597918
345.900 0.593803
346.000 0.577584
346.100 0.561365
346.200 0.570080
346.300 0.576616
346.400 0.583878
346.500 0.575405
346.600 0.576616
346.700 0.596466
346.800 0.624062
346.900 0.644154
347.000 0.648511
347.100 0.635439
347.200 0.619705
347.300 0.590656
347.400 0.570806
347.500 0.562818
347.600 0.564512
347.700 0.591624
347.800 0.618494
347.900 0.632292
348.000 0.642459
348.100 0.638344
348.200 0.628177
348.300 0.622852
348.400 0.620915
348.500 0.633019
348.600 0.649480
348.700 0.648269
348.800 0.634713
348.900 0.610264
349.000 0.589930
349.100 0.599371
349.200 0.618736
349.300 0.620189
349.400 0.615105
349.500 0.604696
349.600 0.594287
349.700 0.599613
349.800 0.593561
349.900 0.596950
350.000 0.597918
350.100 0.598160
350.200 0.607601
350.300 0.610264
350.400 0.611958
350.500 0.604696
350.600 0.599855
350.700 0.598402
350.800 0.591382
350.900 0.592835
351.000 0.591866
351.100 0.591866
351.200 0.588477
351.300 0.583394
351.400 0.587993
351.500 0.600823
351.600 0.627693
351.700 0.646575
351.800 0.644396
351.900 0.619705
352.000 0.601549
352.100 0.591382
352.200 0.585815
352.300 0.579521
352.400 0.565481
352.500 0.556040
352.600 0.565723
352.700 0.581457
352.800 0.602760
352.900 0.622125
353.000 0.636408
353.100 0.647543
353.200 0.644396
353.300 0.624788
353.400 0.611716
353.500 0.608085
353.600 0.624546
353.700 0.649722
353.800 0.661341
353.900 0.664246
354.000 0.659162
354.100 0.653353
354.200 0.654079
354.300 0.664488
354.400 0.672476
354.500 0.669572
354.600 0.662551
354.700 0.651900
354.800 0.647059
354.900 0.651416
355.000 0.663520
355.100 0.677560
355.200 0.669572
355.300 0.649237
355.400 0.636166
355.500 0.639070
355.600 0.652384
355.700 0.671266
355.800 0.681433
355.900 0.677076
356.000 0.669814
356.100 0.665940
356.200 0.661099
356.300 0.646817
356.400 0.625999
356.500 0.607601
356.600 0.603970
356.700 0.607601
356.800 0.605664
356.900 0.599129
357.000 0.586783
357.100 0.578068
357.200 0.578068
357.300 0.581699
357.400 0.587993
357.500 0.599371
357.600 0.609296
357.700 0.621157
357.800 0.631808
357.900 0.623578
358.000 0.606391
358.100 0.590898
358.200 0.583636
358.300 0.588477
358.400 0.580005
358.500 0.561123
358.600 0.535221
358.700 0.524086
358.800 0.540547
358.900 0.574921
359.000 0.604938
359.100 0.616074
359.200 0.611232
359.300 0.609296
359.400 0.615589
359.500 0.634229
359.600 0.649237
359.700 0.654079
359.800 0.651900
359.900 0.650206
360.000 0.650932
360.100 0.637618
360.200 0.626241
360.300 0.621157
360.400 0.628419
360.500 0.632534
360.600 0.626241
360.700 0.615589
360.800 0.607117
360.900 0.608811
361.000 0.610506
361.100 0.615589
361.200 0.626483
361.300 0.634471
361.400 0.643428
361.500 0.666183
361.600 0.668119
361.700 0.655289
361.800 0.630840
361.900 0.610022
362.000 0.622125
362.100 0.641007
362.200 0.652626
362.300 0.659647
362.400 0.665940
362.500 0.685306
362.600 0.707093
362.700 0.727185
362.800 0.720165
362.900 0.691116
363.000 0.647785
363.100 0.623094
363.200 0.632534
363.300 0.657226
363.400 0.666667
363.500 0.661099
363.600 0.657226
363.700 0.671024
363.800 0.689664
363.900 0.698862
364.000 0.699104
364.100 0.690632
364.200 0.675623
364.300 0.664246
364.400 0.656258
364.500 0.652142
364.600 0.649237
364.700 0.647785
364.800 0.648027
364.900 0.644638
365.000 0.644880
365.100 0.648995
365.200 0.663762
365.300 0.678044
365.400 0.696199
365.500 0.713145
365.600 0.724038
365.700 0.727669
365.800 0.723554
365.900 0.724280
366.000 0.726701
366.100 0.716049
366.200 0.703946
366.300 0.694021
366.400 0.694989
366.500 0.703462
366.600 0.705640
366.700 0.703946
366.800 0.692568
366.900 0.681675
367.000 0.680949
367.100 0.689421
367.200 0.701767
367.300 0.709271
367.400 0.707093
367.500 0.700557
367.600 0.683128
367.700 0.664004
367.800 0.653111
367.900 0.655289
368.000 0.663520
368.100 0.666909
368.200 0.669329
368.300 0.670056
368.400 0.668603
368.500 0.656984
368.600 0.651416
368.700 0.659162
368.800 0.683128
368.900 0.707577
369.000 0.707335
369.100 0.701041
369.200 0.697168
369.300 0.699831
369.400 0.703462
369.500 0.710966
369.600 0.707819
369.700 0.696926
369.800 0.709513
369.900 0.730090
370.000 0.754055
370.100 0.748003
370.200 0.705640
370.300 0.654563
370.400 0.624304
370.500 0.622610
370.600 0.638102
370.700 0.657226
370.800 0.674897
370.900 0.674171
371.000 0.651658
371.100 0.630114
371.200 0.630840
371.300 0.663036
371.400 0.706609
371.500 0.746066
371.600 0.765674
371.700 0.767369
371.800 0.742193
371.900 0.689421
372.000 0.610748
372.100 0.559187
372.200 0.559671
372.300 0.606149
372.400 0.676350
372.500 0.727911
372.600 0.746308
372.700 0.755749
372.800 0.762285
372.900 0.767611
373.000 0.761801
373.100 0.732268
373.200 0.656015
373.300 0.580005
373.400 0.525539
373.500 0.516340
373.600 0.555556
373.700 0.625999
373.800 0.684822
373.900 0.748487
374.000 0.784798
374.100 0.796417
374.200 0.781167
374.300 0.762285
374.400 0.735657
374.500 0.709029
374.600 0.686759
374.700 0.654563
374.800 0.612685
374.900 0.571532
375.000 0.552167
375.100 0.580731
375.200 0.639313
375.300 0.711934
375.400 0.770031
375.500 0.799080
375.600 0.802469
375.700 0.779956
375.800 0.765190
375.900 0.765190
376.000 0.767611
376.100 0.782619
376.200 0.793028
376.300 0.792786
376.400 0.783103
376.500 0.765916
376.600 0.743404
376.700 0.714597
376.800 0.661099
376.900 0.606391
377.000 0.568143
377.100 0.579521
377.200 0.628661
377.300 0.698136
377.400 0.747761
377.500 0.775841
377.600 0.790123
377.700 0.808521
377.800 0.837570
377.900 0.864198
378.000 0.888163
378.100 0.898572
378.200 0.897119
378.300 0.890099
378.400 0.885500
378.500 0.871944
378.600 0.859840
378.700 0.842653
378.800 0.828371
378.900 0.822803
379.000 0.818688
379.100 0.811426
379.200 0.794723
379.300 0.767369
379.400 0.727427
379.500 0.672718
379.600 0.618010
379.700 0.563060
379.800 0.541515
379.900 0.571532
380.000 0.651658
380.100 0.720891
380.200 0.784556
380.300 0.812878
380.400 0.831760
380.500 0.838296
380.600 0.843137
380.700 0.857904
380.800 0.877754
380.900 0.900750
381.000 0.915759
381.100 0.915517
381.200 0.891310
381.300 0.867102
381.400 0.847737
381.500 0.848705
381.600 0.865892
381.700 0.887436
381.800 0.893004
381.900 0.870007
382.000 0.849189
382.100 0.841927
382.200 0.847252
382.300 0.845800
382.400 0.818930
382.500 0.794481
382.600 0.777052
382.700 0.763253
382.800 0.745340
382.900 0.728395
383.000 0.714355
383.100 0.681433
383.200 0.639555
383.300 0.575163
383.400 0.515372
383.500 0.496006
383.600 0.510288
383.700 0.548293
383.800 0.599129
383.900 0.644154
384.000 0.682885
384.100 0.732752
384.200 0.773905
384.300 0.819898
384.400 0.852094
384.500 0.870007
384.600 0.887194
384.700 0.903171
384.800 0.912370
384.900 0.906802
385.000 0.901719
385.100 0.914549
385.200 0.937545
385.300 0.958122
385.400 0.958364
385.500 0.942871
385.600 0.925926
385.700 0.915759
385.800 0.902445
385.900 0.898330
386.000 0.908497
386.100 0.930525
386.200 0.949407
386.300 0.955701
386.400 0.950375
386.500 0.943355
386.600 0.946502
386.700 0.953280
386.800 0.959332
386.900 0.956669
387.000 0.937061
387.100 0.917453
387.200 0.892278
387.300 0.881385
387.400 0.881385
387.500 0.886710
387.600 0.880658
387.700 0.854515
387.800 0.832970
387.900 0.826676
388.000 0.834423
388.100 0.835391
388.200 0.821109
388.300 0.801501
388.400 0.770758
388.500 0.724522
388.600 0.670540
388.700 0.595255
388.800 0.547567
388.900 0.539821
389.000 0.582668
389.100 0.649237
389.200 0.715323
389.300 0.748245
389.400 0.767853
389.500 0.786977
389.600 0.809731
389.700 0.833454
389.800 0.852094
389.900 0.860324
390.000 0.867587
390.100 0.878238
390.200 0.885016
390.300 0.891068
390.400 0.886226
390.500 0.884532
390.600 0.893972
390.700 0.918906
390.800 0.946986
390.900 0.972646
391.000 0.983781
391.100 0.985718
391.200 0.984023
391.300 0.977971
391.400 0.966594
391.500 0.961511
391.600 0.964657
391.700 0.964900
391.800 0.958606
391.900 0.948681
392.000 0.944081
392.100 0.941419
392.200 0.940208
392.300 0.944565
392.400 0.946744
392.500 0.944323
392.600 0.920358
392.700 0.888647
392.800 0.842169
392.900 0.787703
393.000 0.719680
393.100 0.608085
393.200 0.489228
393.300 0.401356
393.400 0.402566
393.500 0.488502
393.600 0.621157
393.700 0.724280
393.800 0.819898
393.900 0.871702
394.000 0.903171
394.100 0.922053
394.200 0.924958
394.300 0.924473
394.400 0.931494
394.500 0.939724
394.600 0.951101
394.700 0.954975
394.800 0.950133
394.900 0.944323
395.000 0.937787
395.100 0.933914
395.200 0.931252
395.300 0.937061
395.400 0.937303
395.500 0.927136
395.600 0.914306
395.700 0.901235
395.800 0.900508
395.900 0.898088
396.000 0.871944
396.100 0.840717
396.200 0.797870
396.300 0.760349
396.400 0.721375
396.500 0.642459
396.600 0.545631
396.700 0.416364
396.800 0.329218
396.900 0.304527
397.000 0.361656
397.100 0.458000
397.200 0.576616
397.300 0.652626
397.400 0.723069
397.500 0.771000
397.600 0.809247
397.700 0.844106
397.800 0.871702
397.900 0.899782
398.000 0.911886
398.100 0.915517
398.200 0.922537
398.300 0.933672
398.400 0.950617
398.500 0.966594
398.600 0.978940
398.700 0.989349
398.800 0.999274
398.900 1.004841
399.000 1.009199
399.100 1.017187
399.200 1.022755
399.300 1.030985
399.400 1.032680
399.500 1.026144
399.600 1.008473
399.700 0.996369
399.800 1.002179
399.900 1.020818
400.000 1.032438
400.100 1.040668
400.200 1.041152
400.300 1.033648
400.400 1.019608
400.500 1.007504
400.600 1.009683
400.700 1.023239
400.800 1.043089
400.900 1.054224
401.000 1.057613
401.100 1.058581
401.200 1.056645
401.300 1.054950
401.400 1.056161
401.500 1.062213
401.600 1.068264
401.700 1.072380
401.800 1.078431
401.900 1.081336
402.000 1.084725
402.100 1.082062
402.200 1.076979
402.300 1.072622
402.400 1.068264
402.500 1.069717
402.600 1.077705
402.700 1.089567
402.800 1.087630
402.900 1.077947
403.000 1.058339
403.100 1.044783
403.200 1.040184
403.300 1.042605
403.400 1.049867
403.500 1.067054
403.600 1.085694
403.700 1.106028
403.800 1.111353
403.900 1.105543
404.000 1.096103
404.100 1.091019
404.200 1.090777
404.300 1.079400
404.400 1.051561
404.500 1.025660
404.600 1.022271
404.700 1.045025
404.800 1.072380
404.900 1.090535
405.000 1.093682
405.100 1.096587
405.200 1.092472
405.300 1.083757
405.400 1.076495
405.500 1.071169
405.600 1.070443
405.700 1.070201
405.800 1.072380
405.900 1.086662
406.000 1.094650
406.100 1.085694
406.200 1.056161
406.300 1.033406
406.400 1.024691
406.500 1.024207
406.600 1.030743
406.700 1.037763
406.800 1.040668
406.900 1.038732
407.000 1.030743
407.100 1.012830
407.200 1.003631
407.300 1.008715
407.400 1.018155
407.500 1.017913
407.600 0.996853
407.700 0.977487
407.800 0.968046
407.900 0.982813
408.000 1.006052
408.100 1.020818
408.200 1.021060
408.300 1.009683
408.400 0.998305
408.500 0.990801
408.600 0.994432
408.700 0.999274
408.800 1.003389
408.900 1.001937
409.000 0.994916
409.100 0.986686
409.200 0.978456
409.300 0.959332
409.400 0.942629
409.500 0.919632
409.600 0.893730
409.700 0.864924
409.800 0.821835
409.900 0.769789
410.000 0.687727
410.100 0.629630
410.200 0.619221
410.300 0.679254
410.400 0.752602
410.500 0.824740
410.600 0.862987
410.700 0.888889
410.800 0.907044
410.900 0.920600
411.000 0.938514
411.100 0.950859
411.200 0.966110
411.300 0.979424
411.400 0.993222
411.500 1.007504
411.600 1.012346
411.700 1.008957
411.800 1.002663
411.900 0.997337
412.000 0.998790
412.100 1.005568
412.200 1.014524
412.300 1.022755
412.400 1.030743
412.500 1.034858
412.600 1.035585
412.700 1.035100
412.800 1.035585
412.900 1.038489
413.000 1.035343
413.100 1.025418
413.200 1.013556
413.300 1.014040
413.400 1.027596
413.500 1.042121
413.600 1.053498
413.700 1.065844
413.800 1.076737
413.900 1.085694
414.000 1.083757
414.100 1.069475
414.200 1.048414
414.300 1.033164
414.400 1.033648
414.500 1.044057
414.600 1.059792
414.700 1.063423
414.800 1.062455
414.900 1.065359
415.000 1.068506
415.100 1.070685
415.200 1.064391
415.300 1.056161
415.400 1.050109
415.500 1.049141
