# Wavelength (nm)   F_lamA (normalized erg/cm2/s/A)9.100 0.000013
9.400 0.000022
9.600 0.000032
9.800 0.000044
10.000 0.000061
10.200 0.000083
10.400 0.000111
10.600 0.000146
10.800 0.000191
11.000 0.000247
11.400 0.000399
11.800 0.000621
12.100 0.000847
12.500 0.001246
12.700 0.001495
12.800 0.001632
13.100 0.002108
13.200 0.002289
13.400 0.002686
13.700 0.003379
14.000 0.004199
14.300 0.005162
14.700 0.006688
15.100 0.008520
15.500 0.010689
15.900 0.013220
16.200 0.015368
16.600 0.018581
17.000 0.022217
17.300 0.025225
17.700 0.029618
18.000 0.033206
18.200 0.035737
18.600 0.041139
19.100 0.048513
19.400 0.053267
19.800 0.059973
20.200 0.067101
20.500 0.072715
21.000 0.082538
21.600 0.095089
22.000 0.103820
22.300 0.110641
22.700 0.119918
23.000 1.583220
23.400 1.746930
24.000 2.943383
24.600 5.651432
25.200 8.049113
25.700 4.024557
26.000 9.181446
26.400 15.020464
26.900 16.364256
27.400 16.568895
27.900 14.583902
28.400 17.974079
29.000 18.321965
29.600 14.740791
30.100 4.594816
30.800 8.976808
31.800 16.289222
32.800 16.275580
33.800 16.091405
34.800 15.770805
35.700 16.630286
36.600 18.124147
37.500 17.721692
38.500 16.043656
39.500 17.544338
40.500 18.158254
41.400 18.117326
42.200 17.510232
43.000 17.012278
44.100 17.810368
45.100 17.817190
46.000 17.203274
47.000 17.121419
48.000 17.442019
49.000 16.753070
50.000 17.407913
50.600 22.360164
51.200 33.744884
52.000 32.755798
53.000 31.821282
54.000 29.201910
55.000 29.154161
56.000 32.012278
57.000 31.944065
58.000 30.716235
59.000 31.030014
60.000 29.747613
61.000 29.092769
62.000 30.688950
63.000 30.054570
64.000 30.136426
65.000 29.461119
65.800 28.560709
66.500 29.079127
67.500 29.229195
68.500 27.789905
69.500 28.444748
70.500 26.875853
71.600 28.008186
72.600 27.769441
73.500 27.585266
74.500 26.971351
75.500 26.582538
76.500 25.825375
77.500 25.873124
78.500 25.538881
79.500 25.327422
80.500 25.102319
81.500 24.931787
82.500 24.747613
83.500 23.185539
84.500 24.065484
85.500 23.703956
86.500 23.642565
87.500 23.383356
88.500 23.083220
89.500 22.783083
90.500 22.298772
91.500 21.480218
92.500 41.009550
93.500 56.166439
94.500 73.942701
95.500 78.581173
96.500 87.994543
97.500 59.965894
98.500 83.765348
99.500 77.694407
100.500 80.763984
101.500 78.717599
102.500 57.401091
103.500 74.215553
104.500 76.875853
105.500 75.034106
106.500 71.214188
107.500 70.668486
108.500 65.682128
109.500 68.417462
110.500 66.105048
111.500 64.672578
112.500 61.568895
113.500 62.189632
114.500 60.334243
115.500 58.929059
116.500 57.728513
117.500 51.255116
118.500 54.522510
119.500 52.994543
120.500 50.545703
121.500 38.096862
122.500 48.799454
123.500 49.092769
124.500 48.083220
125.500 47.530696
126.500 46.637108
127.500 45.907231
128.500 45.020464
129.500 43.369714
130.500 42.646658
131.500 42.312415
132.500 41.166439
133.500 40.136426
134.500 39.706685
135.500 38.860846
136.500 37.858117
137.500 37.005457
138.500 36.398363
139.500 33.581173
140.500 32.189632
141.500 34.283765
142.500 33.253752
143.500 32.953615
144.200 32.489768
144.700 32.148704
145.500 31.548431
146.500 30.961801
147.500 30.388813
148.500 29.931787
149.500 29.270123
150.500 28.697135
151.200 28.253752
151.700 27.987722
152.500 27.517053
153.500 26.405184
154.500 24.952251
155.500 24.686221
156.500 24.986357
157.500 24.836289
158.500 24.522510
159.500 24.092769
160.500 23.246930
161.500 22.789905
162.500 22.428377
163.500 21.950887
164.500 20.989086
165.500 21.568895
166.500 21.241473
167.200 20.709413
167.700 21.016371
168.500 20.668486
169.500 20.279673
170.500 19.849932
171.500 19.290587
172.500 19.024557
173.500 18.963165
174.500 18.587995
175.500 18.260573
176.500 17.939973
177.500 17.694407
178.500 17.442019
179.500 17.141883
180.500 16.916780
181.500 16.582538
182.500 16.316508
183.500 16.077763
184.500 15.675307
185.500 15.381992
186.500 15.190996
187.500 15.006821
188.500 14.631651
189.500 14.345157
190.500 14.270123
191.500 13.956344
192.500 13.642565
193.500 13.581173
194.500 13.437926
195.500 13.069577
196.700 12.974079
197.600 12.858117
198.400 12.619372
199.500 12.346521
200.500 12.244202
201.500 12.087312
202.500 11.937244
203.500 11.705321
204.500 11.527967
205.500 9.638472
206.500 10.170532
207.400 11.118690
207.800 11.050477
208.500 10.968622
209.500 10.798090
210.500 10.675307
211.500 10.586630
212.500 10.443383
213.500 10.272851
214.500 10.102319
215.500 10.047749
216.500 9.802183
217.500 9.747613
218.500 9.529332
219.500 9.495225
220.500 9.351978
221.500 9.120055
222.500 9.072306
223.500 8.963165
224.500 8.833561
225.500 8.601637
226.500 8.581173
227.500 8.472033
228.500 8.356071
229.500 8.158254
230.500 8.021828
231.500 8.008186
232.500 7.735334
233.500 7.776262
234.500 7.660300
235.500 7.585266
236.500 7.462483
237.500 7.373806
238.500 7.141883
239.500 7.162347
240.500 7.073670
241.500 6.978172
242.500 6.909959
243.500 6.809686
244.500 6.729877
245.500 6.640518
246.500 6.553206
247.500 6.465894
248.500 6.387449
249.500 6.121419
250.500 6.221692
251.300 5.913370
251.800 6.099591
252.500 6.055252
253.500 5.979536
254.500 5.901091
255.500 5.843793
256.500 5.767394
257.500 5.706003
258.500 5.633015
259.500 5.557299
260.500 5.487722
261.500 5.416098
262.500 5.360846
263.500 5.301501
264.500 5.267394
265.500 5.204638
266.500 5.128240
267.500 5.070259
268.500 5.025921
269.500 4.942019
270.500 4.903138
271.500 4.834925
272.500 4.763302
273.500 4.652115
274.500 4.645293
275.500 4.599591
276.500 4.540928
277.500 4.517053
278.500 4.455662
279.500 4.352660
280.500 4.322647
281.500 4.316508
282.500 4.259209
283.500 4.214188
284.500 4.175307
285.500 4.122783
286.500 4.089359
287.500 4.042974
288.500 4.001364
289.500 3.955662
291.000 3.903820
293.000 3.816508
295.000 3.721010
297.000 3.658254
299.000 3.582538
301.000 3.497271
303.000 3.412005
305.000 3.330150
307.000 3.249659
309.000 3.175989
311.000 3.098909
313.000 3.023874
315.000 2.958390
317.000 2.891542
319.000 2.804911
321.000 2.738745
323.000 2.692360
325.000 2.639836
327.000 2.585948
329.000 2.532060
331.000 2.482265
332.200 2.495907
332.300 2.510232
332.400 2.502729
332.500 2.497271
332.600 2.482947
332.700 2.463165
332.800 2.450887
332.900 2.451569
333.000 2.450205
333.100 2.452933
333.200 2.448840
333.300 2.430423
333.400 2.414052
333.500 2.396999
333.600 2.380628
333.700 2.379945
333.800 2.381992
333.900 2.379263
334.000 2.362210
334.100 2.361528
334.200 2.373124
334.300 2.423602
334.400 2.461801
334.500 2.486357
334.600 2.499318
334.700 2.496589
334.800 2.461801
334.900 2.406548
335.000 2.319918
335.100 2.308322
335.200 2.328786
335.300 2.337653
335.400 2.333561
335.500 2.321965
335.600 2.318554
335.700 2.315143
335.800 2.311050
335.900 2.302183
336.000 2.297408
336.100 2.300136
336.200 2.317872
336.300 2.330832
336.400 2.335607
336.500 2.314461
336.600 2.285812
336.700 2.263984
336.800 2.251705
336.900 2.252387
337.000 2.263302
337.100 2.261255
337.200 2.239427
337.300 2.245566
337.400 2.268076
337.500 2.297408
337.600 2.310368
337.700 2.291269
337.800 2.277626
337.900 2.281037
338.000 2.302183
338.100 2.329468
338.200 2.333561
338.300 2.327422
338.400 2.315825
338.500 2.328786
338.600 2.351296
338.700 2.364939
338.800 2.362892
338.900 2.341064
339.000 2.333561
339.100 2.330150
339.200 2.345157
339.300 2.357435
339.400 2.389495
339.500 2.396317
339.600 2.380628
339.700 2.361528
339.800 2.341064
339.900 2.289222
340.000 2.251023
340.100 2.246248
340.200 2.228513
340.300 2.218281
340.400 2.228513
340.500 2.240109
340.600 2.236698
340.700 2.232606
340.800 2.238745
340.900 2.243520
341.000 2.251023
341.100 2.228513
341.200 2.227831
341.300 2.246930
341.400 2.269441
341.500 2.283083
341.600 2.281719
341.700 2.284447
341.800 2.290587
341.900 2.299454
342.000 2.296726
342.100 2.298090
342.200 2.293997
342.300 2.299454
342.400 2.297408
342.500 2.289222
342.600 2.289222
342.700 2.293315
342.800 2.313097
342.900 2.324693
343.000 2.309004
343.100 2.293997
343.200 2.278308
343.300 2.274216
343.400 2.277626
343.500 2.296044
343.600 2.305593
343.700 2.300136
343.800 2.281037
343.900 2.256480
344.000 2.220327
344.100 2.201910
344.200 2.204638
344.300 2.223738
344.400 2.241473
344.500 2.226467
344.600 2.218281
344.700 2.216235
344.800 2.236698
344.900 2.258527
345.000 2.216917
345.100 2.175307
345.200 2.158936
345.300 2.157572
345.400 2.170532
345.500 2.175307
345.600 2.178035
345.700 2.174625
345.800 2.162347
345.900 2.150750
346.000 2.141201
346.100 2.142565
346.200 2.163029
346.300 2.237381
346.400 2.205321
346.500 2.195089
346.600 2.199864
346.700 2.196453
346.800 2.195089
346.900 2.203274
347.000 2.208049
347.100 2.175989
347.200 2.170532
347.300 2.193042
347.400 2.184857
347.500 2.166439
347.600 2.143929
347.700 2.103683
347.800 2.068895
347.900 2.067531
348.000 2.095498
348.100 2.128922
348.200 2.122101
348.300 2.096862
348.400 2.102319
348.500 2.145975
348.600 2.161664
348.700 2.173261
348.800 2.197817
348.900 2.202592
349.000 2.182810
349.100 2.173261
349.200 2.191678
349.300 2.190996
349.400 2.186903
349.500 2.171214
349.600 2.136426
349.700 2.135061
349.800 2.153479
349.900 2.173943
350.000 2.156207
350.100 2.107776
350.200 2.107094
350.300 2.119372
350.400 2.111187
350.500 2.087312
350.600 2.076398
350.700 2.081855
350.800 2.091405
350.900 2.092087
351.000 2.090723
351.100 2.090723
351.200 2.081855
351.300 2.070259
351.400 2.077080
351.500 2.080491
351.600 2.098226
351.700 2.094816
351.800 2.097544
351.900 2.103001
352.000 2.099591
352.100 2.092769
352.200 2.087995
352.300 2.086630
352.400 2.101637
352.500 2.072306
352.600 2.070941
352.700 2.073670
352.800 2.086630
352.900 2.107776
353.000 2.114598
353.100 2.120055
353.200 2.130969
353.300 2.120055
353.400 2.096180
353.500 2.090723
353.600 2.094134
353.700 2.077080
353.800 2.076398
353.900 2.081855
354.000 2.102319
354.100 2.113233
354.200 2.107094
354.300 2.098909
354.400 2.103001
354.500 2.107776
354.600 2.094816
354.700 2.098909
354.800 2.113233
354.900 2.115280
355.000 2.098226
355.100 2.085948
355.200 2.090041
355.300 2.098909
355.400 2.100273
355.500 2.091405
355.600 2.080491
355.700 2.089359
355.800 2.096862
355.900 2.094134
356.000 2.087995
356.100 2.096862
356.200 2.106412
356.300 2.099591
356.400 2.090041
356.500 2.088677
356.600 2.088677
356.700 2.064120
356.800 2.068213
356.900 2.062074
357.000 2.032742
357.100 1.983629
357.200 1.971351
357.300 1.976126
357.400 1.971351
357.500 1.974079
357.600 1.982947
357.700 1.985675
357.800 1.986357
357.900 1.980218
358.000 1.987722
358.100 1.994543
358.200 1.986357
358.300 1.984993
358.400 1.984311
358.500 1.972033
358.600 1.952251
358.700 1.940655
358.800 1.935198
358.900 1.936562
359.000 1.957708
359.100 1.974079
359.200 1.974761
359.300 1.978854
359.400 1.978854
359.500 1.974079
359.600 1.969986
359.700 1.972033
359.800 1.976808
359.900 1.986357
360.000 2.006139
360.100 2.000000
360.200 1.998636
360.300 1.980900
360.400 1.968622
360.500 1.972715
360.600 1.974761
360.700 1.976126
360.800 1.984311
360.900 1.990450
361.000 1.983629
361.100 1.957026
361.200 1.957026
361.300 1.950205
361.400 1.938608
361.500 1.944748
361.600 1.969986
361.700 1.987722
361.800 1.993179
361.900 1.987040
362.000 1.966576
362.100 1.965894
362.200 1.989086
362.300 1.992497
362.400 1.984311
362.500 1.984311
362.600 1.997271
362.700 2.008868
362.800 2.002046
362.900 1.989768
363.000 1.991132
363.100 1.989768
363.200 1.972033
363.300 1.959754
363.400 1.979536
363.500 1.983629
363.600 1.946794
363.700 1.926330
363.800 1.933151
363.900 1.937926
364.000 1.946112
364.100 1.957026
364.200 1.954980
364.300 1.931787
364.400 1.906548
364.500 1.906548
364.600 1.914052
364.700 1.919509
364.800 1.927012
364.900 1.931105
365.000 1.929741
365.100 1.920873
365.200 1.920873
365.300 1.920191
365.400 1.916780
365.500 1.924284
365.600 1.928377
365.700 1.924966
365.800 1.924284
365.900 1.920191
366.000 1.907913
366.100 1.899727
366.200 1.898363
366.300 1.906548
366.400 1.913370
366.500 1.907913
366.600 1.902456
366.700 1.894270
366.800 1.890177
366.900 1.895634
367.000 1.894270
367.100 1.889495
367.200 1.889495
367.300 1.892224
367.400 1.891542
367.500 1.887449
367.600 1.890859
367.700 1.876535
367.800 1.866985
367.900 1.867667
368.000 1.873806
368.100 1.885402
368.200 1.891542
368.300 1.884038
368.400 1.871078
368.500 1.864939
368.600 1.855389
368.700 1.857435
368.800 1.877899
368.900 1.904502
369.000 1.909959
369.100 1.888131
369.200 1.892224
369.300 1.912005
369.400 1.914734
369.500 1.907913
369.600 1.877217
369.700 1.858117
369.800 1.866985
369.900 1.911323
370.000 1.969986
370.100 1.963165
370.200 1.907913
370.300 1.818554
370.400 1.772169
370.500 1.763302
370.600 1.821282
370.700 1.886085
370.800 1.926330
370.900 1.906548
371.000 1.840382
371.100 1.782401
371.200 1.745566
371.300 1.770805
371.400 1.843111
371.500 1.956344
371.600 2.000000
371.700 2.018417
371.800 2.005457
371.900 1.931105
372.000 1.797408
372.100 1.725102
372.200 1.688267
372.300 1.728513
372.400 1.809686
372.500 1.911323
372.600 1.959754
372.700 2.005457
372.800 2.020464
372.900 2.025921
373.000 2.012960
373.100 1.957708
373.200 1.839700
373.300 1.739427
373.400 1.645293
373.500 1.627558
373.600 1.679400
373.700 1.804229
373.800 1.896317
373.900 2.010232
374.000 2.065484
374.100 2.093452
374.200 2.085266
374.300 2.059345
374.400 2.035471
374.500 2.006821
374.600 1.938608
374.700 1.836289
374.800 1.733288
374.900 1.601637
375.000 1.568213
375.100 1.610505
375.200 1.718281
375.300 1.820600
375.400 1.924966
375.500 1.983629
375.600 2.030696
375.700 2.026603
375.800 1.999318
375.900 1.972715
376.000 1.954980
376.100 1.946794
376.200 1.993179
376.300 2.023192
376.400 2.014325
376.500 1.982265
376.600 1.918145
376.700 1.850614
376.800 1.743520
376.900 1.633697
377.000 1.545020
377.100 1.522510
377.200 1.596180
377.300 1.735334
377.400 1.836289
377.500 1.915416
377.600 1.961119
377.700 1.994543
377.800 2.036835
377.900 2.056617
378.000 2.076398
378.100 2.087995
378.200 2.094816
378.300 2.083220
378.400 2.073670
378.500 2.081855
378.600 2.076398
378.700 2.053888
378.800 2.034789
378.900 2.025921
379.000 2.012278
379.100 1.993179
379.200 1.969986
379.300 1.929059
379.400 1.855389
379.500 1.733288
379.600 1.613233
379.700 1.492497
379.800 1.447476
379.900 1.491132
380.000 1.641883
380.100 1.772851
380.200 1.886767
380.300 1.944748
380.400 1.987722
380.500 2.017735
380.600 2.009550
380.700 2.019100
380.800 2.036153
380.900 2.060027
381.000 2.086630
381.100 2.095498
381.200 2.070941
381.300 2.042974
381.400 2.017053
381.500 2.012960
381.600 2.013643
381.700 2.016371
381.800 2.001364
381.900 1.974079
382.000 1.951569
382.100 1.942019
382.200 1.980900
382.300 2.009550
382.400 2.000682
382.500 1.973397
382.600 1.943383
382.700 1.946112
382.800 1.944748
382.900 1.909959
383.000 1.864939
383.100 1.798772
383.200 1.711460
383.300 1.588677
383.400 1.437926
383.500 1.370396
383.600 1.375171
383.700 1.478854
383.800 1.607094
383.900 1.727831
384.000 1.800136
384.100 1.870396
384.200 1.912005
384.300 1.963847
384.400 2.007503
384.500 2.037517
384.600 2.036153
384.700 2.034789
384.800 2.031378
384.900 2.036153
385.000 2.030014
385.100 2.041610
385.200 2.052524
385.300 2.054570
385.400 2.041610
385.500 2.025239
385.600 2.008868
385.700 2.001364
385.800 2.012960
385.900 2.033424
386.000 2.039563
386.100 2.045703
386.200 2.034789
386.300 2.004775
386.400 2.000682
386.500 1.997954
386.600 1.995225
386.700 2.005457
386.800 2.019100
386.900 2.021828
387.000 2.007503
387.100 1.982947
387.200 1.957026
387.300 1.949523
387.400 1.959072
387.500 1.980218
387.600 1.982947
387.700 1.965894
387.800 1.950205
387.900 1.942701
388.000 1.951569
388.100 1.942019
388.200 1.909959
388.300 1.873124
388.400 1.831514
388.500 1.757844
388.600 1.647340
388.700 1.480218
388.800 1.358117
388.900 1.302183
389.000 1.375853
389.100 1.524557
389.200 1.688267
389.300 1.785130
389.400 1.851296
389.500 1.883356
389.600 1.907913
389.700 1.932469
389.800 1.946112
389.900 1.946112
390.000 1.949523
390.100 1.968622
390.200 1.991814
390.300 2.004093
390.400 2.004093
390.500 1.999318
390.600 1.986357
390.700 1.993861
390.800 2.023874
390.900 2.050477
391.000 2.048431
391.100 2.046385
391.200 2.038199
391.300 2.011596
391.400 1.997954
391.500 2.007503
391.600 2.021146
391.700 2.022510
391.800 2.014325
391.900 1.991132
392.000 1.981583
392.100 1.976808
392.200 1.965894
392.300 1.948840
392.400 1.946794
392.500 1.956344
392.600 1.949523
392.700 1.943383
392.800 1.927012
392.900 1.908595
393.000 1.875171
393.100 1.793997
393.200 1.623465
393.300 1.386767
393.400 1.397681
393.500 1.580491
393.600 1.732606
393.700 1.818554
393.800 1.874488
393.900 1.912688
394.000 1.950205
394.100 1.972033
394.200 1.975443
394.300 1.963165
394.400 1.959754
394.500 1.939291
394.600 1.936562
394.700 1.948158
394.800 1.952251
394.900 1.945430
395.000 1.937244
395.100 1.931105
395.200 1.927012
395.300 1.930423
395.400 1.932469
395.500 1.927012
395.600 1.913370
395.700 1.894270
395.800 1.887449
395.900 1.891542
396.000 1.886085
396.100 1.869714
396.200 1.828786
396.300 1.779673
396.400 1.722374
396.500 1.652797
396.600 1.542974
396.700 1.309686
396.800 1.082538
396.900 0.981583
397.000 1.025239
397.100 1.150750
397.200 1.334925
397.300 1.482265
397.400 1.608458
397.500 1.694407
397.600 1.761255
397.700 1.798772
397.800 1.817190
397.900 1.847885
398.000 1.862210
398.100 1.870396
398.200 1.868349
398.300 1.863574
398.400 1.877899
398.500 1.896317
398.600 1.877217
398.700 1.837653
398.800 1.886085
398.900 1.904502
399.000 1.918145
399.100 1.930423
399.200 1.936562
399.300 1.937926
399.400 1.925648
399.500 1.918827
399.600 1.902456
399.700 1.896317
399.800 1.897681
399.900 1.905866
400.000 1.899045
400.100 1.894270
400.200 1.896317
400.300 1.894952
400.400 1.895634
400.500 1.892224
400.600 1.888131
400.700 1.886085
400.800 1.894270
400.900 1.892906
401.000 1.887449
401.100 1.895634
401.200 1.899045
401.300 1.903138
401.400 1.910641
401.500 1.916780
401.600 1.922920
401.700 1.933151
401.800 1.944065
401.900 1.951569
402.000 1.950205
402.100 1.935198
402.200 1.920191
402.300 1.888131
402.400 1.841064
402.500 1.793315
402.600 1.785812
402.700 1.819236
402.800 1.870396
402.900 1.894952
403.000 1.913370
403.100 1.910641
403.200 1.910641
403.300 1.910641
403.400 1.913370
403.500 1.920191
403.600 1.925648
403.700 1.932469
403.800 1.939973
403.900 1.937244
404.000 1.938608
404.100 1.939973
404.200 1.930423
404.300 1.920191
404.400 1.909959
404.500 1.895634
404.600 1.885402
404.700 1.901091
404.800 1.922237
404.900 1.933834
405.000 1.931787
405.100 1.929741
405.200 1.930423
405.300 1.920873
405.400 1.916780
405.500 1.923602
405.600 1.927012
405.700 1.931105
405.800 1.937244
405.900 1.942701
406.000 1.939291
406.100 1.918145
406.200 1.903138
406.300 1.897681
406.400 1.858117
406.500 1.784447
406.600 1.812415
406.700 1.847885
406.800 1.849250
406.900 1.839700
407.000 1.829468
407.100 1.818554
407.200 1.817872
407.300 1.813097
407.400 1.823329
407.500 1.821965
407.600 1.801501
407.700 1.785130
407.800 1.781719
407.900 1.803547
408.000 1.829468
408.100 1.843111
408.200 1.843111
408.300 1.838336
408.400 1.821965
408.500 1.813779
408.600 1.806958
408.700 1.816508
408.800 1.826739
408.900 1.828104
409.000 1.817872
409.100 1.808322
409.200 1.802183
409.300 1.778308
409.400 1.753070
409.500 1.716235
409.600 1.672578
409.700 1.622101
409.800 1.534789
409.900 1.434516
410.000 1.307640
410.100 1.197135
410.200 1.159618
410.300 1.236698
410.400 1.386085
410.500 1.545020
410.600 1.628922
410.700 1.673943
410.800 1.704638
410.900 1.717599
411.000 1.729877
411.100 1.744202
411.200 1.763984
411.300 1.782401
411.400 1.803547
411.500 1.821282
411.600 1.830150
411.700 1.820600
411.800 1.798090
411.900 1.778990
412.000 1.772851
412.100 1.777626
412.200 1.779673
412.300 1.787858
412.400 1.801501
412.500 1.815143
412.600 1.814461
412.700 1.795362
412.800 1.773533
412.900 1.768076
413.000 1.772169
413.100 1.777626
413.200 1.780355
413.300 1.784447
413.400 1.799454
413.500 1.813097
413.600 1.819236
413.700 1.825375
413.800 1.834243
413.900 1.839018
414.000 1.839700
414.100 1.833561
414.200 1.809686
414.300 1.782401
