# Wavelength (nm)   F_lamA (normalized erg/cm2/s/A)9.100 0.000084
9.400 0.000113
9.600 0.000136
9.800 0.000162
10.000 0.000192
10.200 0.000225
10.400 0.000263
10.600 0.000304
10.800 0.000350
11.000 0.000400
11.400 0.000515
11.800 0.000648
12.100 0.000762
12.500 0.000930
12.700 0.001022
12.800 0.001069
13.100 0.001220
13.200 0.001272
13.400 0.001381
13.700 0.001553
14.000 0.001734
14.300 0.001926
14.700 0.002195
15.100 0.002478
15.500 0.002776
15.900 0.003084
16.200 0.003322
16.600 0.003649
17.000 0.003980
17.300 0.004233
17.700 0.004573
18.000 0.004830
18.200 0.005002
18.600 0.005349
19.100 0.005778
19.400 0.006034
19.800 0.006375
20.200 0.006709
20.500 0.006958
21.000 0.007362
21.600 0.007833
22.000 0.008138
22.300 0.008363
22.700 0.008651
23.000 0.053214
23.400 0.052266
24.000 0.050966
24.600 0.049877
25.200 0.048823
25.700 0.047418
26.000 0.047313
26.400 0.047278
26.900 0.046189
27.400 0.045065
27.900 0.043765
28.400 0.042887
29.000 0.041623
29.600 0.040077
30.100 0.038251
30.800 0.037548
31.800 0.036214
32.800 0.034443
33.800 0.032708
34.800 0.031068
35.700 0.029814
36.600 0.028630
37.500 0.027366
38.500 0.025929
39.500 0.024826
40.500 0.023716
41.400 0.022722
42.200 0.021837
43.000 0.021005
44.100 0.020025
45.100 0.019129
46.000 0.018321
47.000 0.017510
48.000 0.016776
49.000 0.016006
50.000 0.015374
50.600 0.015290
51.200 0.015683
52.000 0.015139
53.000 0.014517
54.000 0.013797
55.000 0.013288
56.000 0.012996
57.000 0.012532
58.000 0.012013
59.000 0.011623
60.000 0.011145
61.000 0.010727
62.000 0.010478
63.000 0.010098
64.000 0.009782
65.000 0.009431
65.800 0.009139
66.500 0.008978
67.500 0.008714
68.500 0.008360
69.500 0.008163
70.500 0.007822
71.600 0.007654
72.600 0.007425
73.500 0.007232
74.500 0.007000
75.500 0.006790
76.500 0.006561
77.500 0.006396
78.500 0.006214
79.500 0.006045
80.500 0.005880
81.500 0.005729
82.500 0.005581
83.500 0.005342
84.500 0.005283
85.500 0.005139
86.500 0.005023
87.500 0.004896
88.500 0.004773
89.500 0.004654
90.500 0.004524
91.500 0.005462
92.500 0.007573
93.500 0.009315
94.500 0.011753
95.500 0.012708
96.500 0.014011
97.500 0.009431
98.500 0.016077
99.500 0.032304
100.500 0.027619
101.500 0.013727
102.500 0.009234
103.500 0.012554
104.500 0.033045
105.500 0.118862
106.500 0.199965
107.500 0.286477
108.500 0.323744
109.500 0.332455
110.500 0.431331
111.500 0.440464
112.500 0.426063
113.500 0.430277
114.500 0.372673
115.500 0.305128
116.500 0.245697
117.500 0.146821
118.500 0.059536
119.500 0.015191
120.500 0.010091
121.500 0.006804
122.500 0.010042
123.500 0.015472
124.500 0.054057
125.500 0.144608
126.500 0.203337
127.500 0.339480
128.500 0.453109
129.500 0.515630
130.500 0.518440
131.500 0.606603
132.500 0.646997
133.500 0.669477
134.500 0.722515
135.500 0.701089
136.500 0.698630
137.500 0.725676
138.500 0.744643
139.500 0.760801
140.500 0.758693
141.500 0.747805
142.500 0.752371
143.500 0.721812
144.200 0.764313
144.700 0.767826
145.500 0.774499
146.500 0.749210
147.500 0.751317
148.500 0.753425
149.500 0.754478
150.500 0.765718
151.200 0.756586
151.700 0.763260
152.500 0.735160
153.500 0.721812
154.500 0.753073
155.500 0.725676
156.500 0.678609
157.500 0.710221
158.500 0.730945
159.500 0.748507
160.500 0.713031
161.500 0.720759
162.500 0.680365
163.500 0.694766
164.500 0.708114
165.500 0.644538
166.500 0.712680
167.200 0.662803
167.700 0.685634
168.500 0.710221
169.500 0.681419
170.500 0.676853
171.500 0.689146
172.500 0.678258
173.500 0.696874
174.500 0.680717
175.500 0.697576
176.500 0.656481
177.500 0.688795
178.500 0.679663
179.500 0.694766
180.500 0.700035
181.500 0.694415
182.500 0.678258
183.500 0.678258
184.500 0.652968
185.500 0.664910
186.500 0.669125
187.500 0.672287
188.500 0.671935
189.500 0.671935
190.500 0.662452
191.500 0.663505
192.500 0.665964
193.500 0.643133
194.500 0.671584
195.500 0.669125
196.700 0.674745
197.600 0.662452
198.400 0.660695
199.500 0.654022
200.500 0.640674
201.500 0.631893
202.500 0.624166
203.500 0.642782
204.500 0.649104
205.500 0.634001
206.500 0.631191
207.400 0.650509
207.800 0.656481
208.500 0.653319
209.500 0.641728
210.500 0.635757
211.500 0.638918
212.500 0.634703
213.500 0.608711
214.500 0.634352
215.500 0.628030
216.500 0.607657
217.500 0.607306
218.500 0.616087
219.500 0.639269
220.500 0.619600
221.500 0.594661
222.500 0.596066
223.500 0.634352
224.500 0.611170
225.500 0.589392
226.500 0.580260
227.500 0.605198
228.500 0.615385
229.500 0.592554
230.500 0.606252
231.500 0.600983
232.500 0.547945
233.500 0.576747
234.500 0.531788
235.500 0.588339
236.500 0.538813
237.500 0.569723
238.500 0.508606
239.500 0.544433
240.500 0.535652
241.500 0.544081
242.500 0.585177
243.500 0.571128
244.500 0.590797
245.500 0.587285
246.500 0.581665
247.500 0.561293
248.500 0.557780
249.500 0.550755
250.500 0.599227
251.300 0.551458
251.800 0.531085
252.500 0.515630
253.500 0.526168
254.500 0.532842
255.500 0.567264
256.500 0.558131
257.500 0.584124
258.500 0.582367
259.500 0.573235
260.500 0.554268
261.500 0.539164
262.500 0.572181
263.500 0.595012
264.500 0.652617
265.500 0.665262
266.500 0.626273
267.500 0.647348
268.500 0.657534
269.500 0.621707
270.500 0.633649
271.500 0.600281
272.500 0.603091
273.500 0.625922
274.500 0.549701
275.500 0.575342
276.500 0.609413
277.500 0.635406
278.500 0.604496
279.500 0.437654
280.500 0.481208
281.500 0.648051
282.500 0.662803
283.500 0.651563
284.500 0.634001
285.500 0.585529
286.500 0.647348
287.500 0.650158
288.500 0.654724
289.500 0.653671
291.000 0.691605
293.000 0.676853
295.000 0.671233
297.000 0.678258
299.000 0.682473
301.000 0.689146
303.000 0.690903
305.000 0.697225
307.000 0.694064
309.000 0.695820
311.000 0.693010
313.000 0.689849
315.000 0.691254
317.000 0.699684
319.000 0.675097
321.000 0.692659
323.000 0.674394
325.000 0.700386
327.000 0.720407
329.000 0.721461
331.000 0.725325
332.200 0.622761
332.300 0.587987
332.400 0.571128
332.500 0.575694
332.600 0.576396
332.700 0.580611
332.800 0.608008
332.900 0.625922
333.000 0.642782
333.100 0.647699
333.200 0.634352
333.300 0.616087
333.400 0.596769
333.500 0.601335
333.600 0.602740
333.700 0.599579
333.800 0.605901
333.900 0.605550
334.000 0.616087
334.100 0.626625
334.200 0.621005
334.300 0.629434
334.400 0.639621
334.500 0.637162
334.600 0.632244
334.700 0.599930
334.800 0.570776
334.900 0.556375
335.000 0.573937
335.100 0.578855
335.200 0.564454
335.300 0.565859
335.400 0.582367
335.500 0.627678
335.600 0.643836
335.700 0.627327
335.800 0.589392
335.900 0.546891
336.000 0.517035
336.100 0.521602
336.200 0.550755
336.300 0.586582
336.400 0.609062
336.500 0.595364
336.600 0.584124
336.700 0.584826
336.800 0.584124
336.900 0.580611
337.000 0.550053
337.100 0.522304
337.200 0.511416
337.300 0.523007
337.400 0.549701
337.500 0.586231
337.600 0.607657
337.700 0.600281
337.800 0.581314
337.900 0.570776
338.000 0.580260
338.100 0.592202
338.200 0.593607
338.300 0.591149
338.400 0.597120
338.500 0.610467
338.600 0.608360
338.700 0.582367
338.800 0.554268
338.900 0.576045
339.000 0.611170
339.100 0.635054
339.200 0.626976
339.300 0.598174
339.400 0.603091
339.500 0.619951
339.600 0.633298
339.700 0.642431
339.800 0.651563
339.900 0.653319
340.000 0.648753
340.100 0.633649
340.200 0.612223
340.300 0.598525
340.400 0.586582
340.500 0.598174
340.600 0.607306
340.700 0.605901
340.800 0.593959
340.900 0.594310
341.000 0.614331
341.100 0.609413
341.200 0.598525
341.300 0.585880
341.400 0.583772
341.500 0.606955
341.600 0.621707
341.700 0.621356
341.800 0.625571
341.900 0.629083
342.000 0.637513
342.100 0.642782
342.200 0.621356
342.300 0.589392
342.400 0.579909
342.500 0.591851
342.600 0.603442
342.700 0.619600
342.800 0.641377
342.900 0.656129
343.000 0.665262
343.100 0.646646
343.200 0.620653
343.300 0.606252
343.400 0.616790
343.500 0.644187
343.600 0.651563
343.700 0.637864
343.800 0.622410
343.900 0.612575
344.000 0.609062
344.100 0.595715
344.200 0.584475
344.300 0.579909
344.400 0.585177
344.500 0.592554
344.600 0.608008
344.700 0.629786
344.800 0.645592
344.900 0.662803
345.000 0.653671
345.100 0.630839
345.200 0.606603
345.300 0.598525
345.400 0.613277
345.500 0.623112
345.600 0.619600
345.700 0.618195
345.800 0.615736
345.900 0.615033
346.000 0.603442
346.100 0.597471
346.200 0.607306
346.300 0.606955
346.400 0.607657
346.500 0.597822
346.600 0.603442
346.700 0.625922
346.800 0.646294
346.900 0.656832
347.000 0.657885
347.100 0.650158
347.200 0.643133
347.300 0.617843
347.400 0.596066
347.500 0.589744
347.600 0.594661
347.700 0.620653
347.800 0.637864
347.900 0.644538
348.000 0.655427
348.100 0.650509
348.200 0.643836
348.300 0.640674
348.400 0.640323
348.500 0.648753
348.600 0.657534
348.700 0.655427
348.800 0.644538
348.900 0.630137
349.000 0.620653
349.100 0.633649
349.200 0.649104
349.300 0.647348
349.400 0.642431
349.500 0.637513
349.600 0.632244
349.700 0.634352
349.800 0.621707
349.900 0.612575
350.000 0.606252
350.100 0.603091
350.200 0.617141
350.300 0.625220
350.400 0.626625
350.500 0.620302
350.600 0.610467
350.700 0.602740
350.800 0.593607
350.900 0.602037
351.000 0.610818
351.100 0.616790
351.200 0.612926
351.300 0.600983
351.400 0.600281
351.500 0.613628
351.600 0.641728
351.700 0.660695
351.800 0.664559
351.900 0.647699
352.000 0.634352
352.100 0.629083
352.200 0.620302
352.300 0.610467
352.400 0.598525
352.500 0.589041
352.600 0.593959
352.700 0.603793
352.800 0.615736
352.900 0.626625
353.000 0.638216
353.100 0.654022
353.200 0.643836
353.300 0.603793
353.400 0.581665
353.500 0.575694
353.600 0.608711
353.700 0.644538
353.800 0.651914
353.900 0.663505
354.000 0.660344
354.100 0.652266
354.200 0.654724
354.300 0.671935
354.400 0.680014
354.500 0.671233
354.600 0.663505
354.700 0.653319
354.800 0.647348
354.900 0.648402
355.000 0.658237
355.100 0.678258
355.200 0.676502
355.300 0.649807
355.400 0.631893
355.500 0.633649
355.600 0.648051
355.700 0.668072
355.800 0.682473
355.900 0.684580
356.000 0.681419
356.100 0.674043
356.200 0.660344
356.300 0.645592
356.400 0.636108
356.500 0.631542
356.600 0.627678
356.700 0.626625
356.800 0.619600
356.900 0.617492
357.000 0.612926
357.100 0.602740
357.200 0.598174
357.300 0.595715
357.400 0.602037
357.500 0.617843
357.600 0.626625
357.700 0.626625
357.800 0.632596
357.900 0.633649
358.000 0.622410
358.100 0.606252
358.200 0.589744
358.300 0.588690
358.400 0.589744
358.500 0.582016
358.600 0.568318
358.700 0.558483
358.800 0.569371
358.900 0.596066
359.000 0.618897
359.100 0.626625
359.200 0.621005
359.300 0.616438
359.400 0.621005
359.500 0.634352
359.600 0.644538
359.700 0.646294
359.800 0.646997
359.900 0.650861
360.000 0.652968
360.100 0.640323
360.200 0.628030
360.300 0.626273
360.400 0.638216
360.500 0.645943
360.600 0.641377
360.700 0.629083
360.800 0.621005
360.900 0.623463
361.000 0.623463
361.100 0.625571
361.200 0.632596
361.300 0.638216
361.400 0.646997
361.500 0.667018
361.600 0.668774
361.700 0.658939
361.800 0.644538
361.900 0.630488
362.000 0.637513
362.100 0.647699
362.200 0.651914
362.300 0.654373
362.400 0.663154
362.500 0.681068
362.600 0.704601
362.700 0.722164
362.800 0.711626
362.900 0.687741
363.000 0.652266
363.100 0.631893
363.200 0.643836
363.300 0.668423
363.400 0.675097
363.500 0.665262
363.600 0.659993
363.700 0.670882
363.800 0.681770
363.900 0.686336
364.000 0.692308
364.100 0.688795
364.200 0.678258
364.300 0.666315
364.400 0.657885
364.500 0.657183
364.600 0.656129
364.700 0.654022
364.800 0.652968
364.900 0.649104
365.000 0.645241
365.100 0.648051
365.200 0.661749
365.300 0.672287
365.400 0.684580
365.500 0.699684
365.600 0.711626
365.700 0.717597
365.800 0.714436
365.900 0.710924
366.000 0.707763
366.100 0.696523
366.200 0.684580
366.300 0.678258
366.400 0.684229
366.500 0.696523
366.600 0.700738
366.700 0.698630
366.800 0.688444
366.900 0.675448
367.000 0.670530
367.100 0.675097
367.200 0.689849
367.300 0.698630
367.400 0.694766
367.500 0.687039
367.600 0.670882
367.700 0.655427
367.800 0.646646
367.900 0.649104
368.000 0.658939
368.100 0.666667
368.200 0.665964
368.300 0.660695
368.400 0.662803
368.500 0.659290
368.600 0.660344
368.700 0.664559
368.800 0.677204
368.900 0.699684
369.000 0.697928
369.100 0.685985
369.200 0.681068
369.300 0.682473
369.400 0.692659
369.500 0.701440
369.600 0.691956
369.700 0.676150
369.800 0.680365
369.900 0.712329
370.000 0.750263
370.100 0.752020
370.200 0.710221
370.300 0.652617
370.400 0.622410
370.500 0.623815
370.600 0.648753
370.700 0.679663
370.800 0.699684
370.900 0.691956
371.000 0.658237
371.100 0.630488
371.200 0.612926
371.300 0.635054
371.400 0.690551
371.500 0.744643
371.600 0.783983
371.700 0.802950
371.800 0.784334
371.900 0.724622
372.000 0.641377
372.100 0.575342
372.200 0.558834
372.300 0.598525
372.400 0.679663
372.500 0.741482
372.600 0.781524
372.700 0.804355
372.800 0.811732
372.900 0.811380
373.000 0.799087
373.100 0.756586
373.200 0.679312
373.300 0.600281
373.400 0.531788
373.500 0.521953
373.600 0.569723
373.700 0.642431
373.800 0.723569
373.900 0.805409
374.000 0.844398
374.100 0.870390
374.200 0.861609
374.300 0.841939
374.400 0.815947
374.500 0.783281
374.600 0.752020
374.700 0.713734
374.800 0.651914
374.900 0.594310
375.000 0.567264
375.100 0.563751
375.200 0.602740
375.300 0.713031
375.400 0.794872
375.500 0.840183
375.600 0.869336
375.700 0.871092
375.800 0.863365
375.900 0.856691
376.000 0.867931
376.100 0.889006
376.200 0.891113
376.300 0.879171
376.400 0.867229
376.500 0.842641
376.600 0.815595
376.700 0.763260
376.800 0.681419
376.900 0.616790
377.000 0.557780
377.100 0.558483
377.200 0.611872
377.300 0.692659
377.400 0.748156
377.500 0.803653
377.600 0.835265
377.700 0.876712
377.800 0.925536
377.900 0.963470
378.000 1.006674
378.100 1.025290
378.200 1.030910
378.300 1.029856
378.400 1.029153
378.500 1.023885
378.600 1.017914
378.700 0.991921
378.800 0.969793
378.900 0.956445
379.000 0.939937
379.100 0.924482
379.200 0.887250
379.300 0.842993
379.400 0.781876
379.500 0.706709
379.600 0.626273
379.700 0.545838
379.800 0.520197
379.900 0.558834
380.000 0.646646
380.100 0.740429
380.200 0.823674
380.300 0.857043
380.400 0.903407
380.500 0.929048
380.600 0.956094
380.700 0.986301
380.800 1.007025
380.900 1.038286
381.000 1.061819
381.100 1.077626
381.200 1.069196
381.300 1.054795
381.400 1.041096
381.500 1.037232
381.600 1.057253
381.700 1.081841
381.800 1.082543
381.900 1.049877
382.000 1.024587
382.100 1.014401
382.200 1.023534
382.300 1.018616
382.400 0.988409
382.500 0.958553
382.600 0.927643
382.700 0.902002
382.800 0.862311
382.900 0.826484
383.000 0.795926
383.100 0.744995
383.200 0.695820
383.300 0.612926
383.400 0.544433
383.500 0.501581
383.600 0.499122
383.700 0.540569
383.800 0.609413
383.900 0.671935
384.000 0.736565
384.100 0.806112
384.200 0.865121
384.300 0.929751
384.400 0.965578
384.500 1.000000
384.600 1.033368
384.700 1.061819
384.800 1.082894
384.900 1.085353
385.000 1.088514
385.100 1.104320
385.200 1.133474
385.300 1.161222
385.400 1.167896
385.500 1.160520
385.600 1.146470
385.700 1.133474
385.800 1.123639
385.900 1.124341
386.000 1.138391
386.100 1.156656
386.200 1.174218
386.300 1.182648
386.400 1.177028
386.500 1.164032
386.600 1.160871
386.700 1.162979
386.800 1.165789
386.900 1.162627
387.000 1.147875
387.100 1.134176
387.200 1.107482
387.300 1.091675
387.400 1.081489
387.500 1.077977
387.600 1.072006
387.700 1.042150
387.800 1.007727
387.900 0.978925
388.000 0.975413
388.100 0.967334
388.200 0.933263
388.300 0.897787
388.400 0.843344
388.500 0.789954
388.600 0.716192
388.700 0.623815
388.800 0.561995
388.900 0.535300
389.000 0.570425
389.100 0.650861
389.200 0.730945
389.300 0.782929
389.400 0.835968
389.500 0.867931
389.600 0.915701
389.700 0.948718
389.800 0.972251
389.900 0.998244
390.000 1.014752
390.100 1.044257
390.200 1.061117
390.300 1.074816
390.400 1.080436
390.500 1.083948
390.600 1.103969
390.700 1.134176
390.800 1.168247
390.900 1.192132
391.000 1.208289
391.100 1.218124
391.200 1.218827
391.300 1.211451
391.400 1.196698
391.500 1.198103
391.600 1.210397
391.700 1.208641
391.800 1.205128
391.900 1.197050
392.000 1.192132
392.100 1.195996
392.200 1.198455
392.300 1.207236
392.400 1.210046
392.500 1.207236
392.600 1.190376
392.700 1.167545
392.800 1.129259
392.900 1.086758
393.000 1.017914
393.100 0.923779
393.200 0.798033
393.300 0.684580
393.400 0.669477
393.500 0.752722
393.600 0.881279
393.700 1.004566
393.800 1.098349
393.900 1.143660
394.000 1.165437
394.100 1.185458
394.200 1.191781
394.300 1.183000
394.400 1.174570
394.500 1.174570
394.600 1.182297
394.700 1.182297
394.800 1.164032
394.900 1.149280
395.000 1.147172
395.100 1.141201
395.200 1.134528
395.300 1.138040
395.400 1.132420
395.500 1.119424
395.600 1.099052
395.700 1.073411
395.800 1.061468
395.900 1.041798
396.000 1.010537
396.100 0.973656
396.200 0.926238
396.300 0.892518
396.400 0.838426
396.500 0.756937
396.600 0.646997
396.700 0.510362
396.800 0.416228
396.900 0.364594
397.000 0.394099
397.100 0.480506
397.200 0.591149
397.300 0.680717
397.400 0.769582
397.500 0.822972
397.600 0.881981
397.700 0.928346
397.800 0.969793
397.900 1.016157
398.000 1.033720
398.100 1.056551
398.200 1.076572
398.300 1.097295
398.400 1.118721
398.500 1.134528
398.600 1.156656
398.700 1.178785
398.800 1.199508
398.900 1.203723
399.000 1.204074
399.100 1.211099
399.200 1.214963
399.300 1.224798
399.400 1.236740
399.500 1.244117
399.600 1.239902
399.700 1.227959
399.800 1.218124
399.900 1.231120
400.000 1.249385
400.100 1.263435
400.200 1.268001
400.300 1.258869
400.400 1.247278
400.500 1.234984
400.600 1.237443
400.700 1.253600
400.800 1.271514
400.900 1.281700
401.000 1.287320
401.100 1.287671
401.200 1.284861
401.300 1.282403
401.400 1.279944
401.500 1.287671
401.600 1.294696
401.700 1.300667
401.800 1.307692
401.900 1.309449
402.000 1.311205
402.100 1.309800
402.200 1.307692
402.300 1.302775
402.400 1.293994
402.500 1.292237
402.600 1.294345
402.700 1.310151
402.800 1.317878
402.900 1.313312
403.000 1.298560
403.100 1.285564
403.200 1.277134
403.300 1.275378
403.400 1.283808
403.500 1.300667
403.600 1.319986
403.700 1.339305
403.800 1.335792
403.900 1.322445
404.000 1.310502
404.100 1.305585
404.200 1.310502
404.300 1.310502
404.400 1.289427
404.500 1.261679
404.600 1.251844
404.700 1.267299
404.800 1.293291
404.900 1.308746
405.000 1.307341
405.100 1.310854
405.200 1.311907
405.300 1.300667
405.400 1.284159
405.500 1.279944
405.600 1.287320
405.700 1.297857
405.800 1.301370
405.900 1.309800
406.000 1.314717
406.100 1.302072
406.200 1.272919
406.300 1.244117
406.400 1.234984
406.500 1.238848
406.600 1.245170
406.700 1.242712
406.800 1.241307
406.900 1.241307
407.000 1.226906
407.100 1.200211
407.200 1.190376
407.300 1.199508
407.400 1.209343
407.500 1.207587
407.600 1.187917
407.700 1.168950
407.800 1.160169
407.900 1.167545
408.000 1.178433
408.100 1.182648
408.200 1.184053
408.300 1.177380
408.400 1.168247
408.500 1.152090
408.600 1.141201
408.700 1.136284
408.800 1.126098
408.900 1.117316
409.000 1.090270
409.100 1.076572
409.200 1.071654
409.300 1.048823
409.400 1.028100
409.500 0.974008
409.600 0.932912
409.700 0.893572
409.800 0.839129
409.900 0.775904
410.000 0.675097
410.100 0.611872
410.200 0.592905
410.300 0.650158
410.400 0.727784
410.500 0.815595
410.600 0.860555
410.700 0.910432
410.800 0.945557
410.900 0.975413
411.000 1.012645
411.100 1.033017
411.200 1.062522
411.300 1.081489
411.400 1.098349
411.500 1.120478
411.600 1.135581
411.700 1.146470
411.800 1.146821
411.900 1.146821
412.000 1.151036
412.100 1.161925
412.200 1.174218
412.300 1.184756
412.400 1.196698
412.500 1.206533
412.600 1.212153
412.700 1.216719
412.800 1.218827
412.900 1.222691
413.000 1.219881
413.100 1.210748
413.200 1.205128
413.300 1.208992
413.400 1.225852
413.500 1.236389
413.600 1.243063
413.700 1.251844
413.800 1.261679
413.900 1.272568
414.000 1.269055
414.100 1.252898
414.200 1.235687
414.300 1.220934
414.400 1.224798
414.500 1.234984
414.600 1.248683
414.700 1.250088
414.800 1.251142
414.900 1.255357
415.000 1.258869
415.100 1.265894
415.200 1.266245
415.300 1.261679
415.400 1.253249
415.500 1.245873
