# Wavelength (nm)   F_lamA (normalized erg/cm2/s/A)9.100 0.000088
9.400 0.000118
9.600 0.000142
9.800 0.000170
10.000 0.000201
10.200 0.000236
10.400 0.000275
10.600 0.000318
10.800 0.000365
11.000 0.000418
11.400 0.000537
11.800 0.000675
12.100 0.000793
12.500 0.000967
12.700 0.001062
12.800 0.001111
13.100 0.001267
13.200 0.001322
13.400 0.001434
13.700 0.001611
14.000 0.001799
14.300 0.001997
14.700 0.002275
15.100 0.002568
15.500 0.002875
15.900 0.003194
16.200 0.003440
16.600 0.003775
17.000 0.004116
17.300 0.004380
17.700 0.004732
18.000 0.004995
18.200 0.005174
18.600 0.005529
19.100 0.005971
19.400 0.006235
19.800 0.006586
20.200 0.006931
20.500 0.007185
21.000 0.007605
21.600 0.008090
22.000 0.008405
22.300 0.008633
22.700 0.008933
23.000 0.054897
23.400 0.053921
24.000 0.052652
24.600 0.051643
25.200 0.050569
25.700 0.048942
26.000 0.049007
26.400 0.048877
26.900 0.047738
27.400 0.046567
27.900 0.045298
28.400 0.044322
29.000 0.042955
29.600 0.041393
30.100 0.039473
30.800 0.038757
31.800 0.037423
32.800 0.035600
33.800 0.033811
34.800 0.032105
35.700 0.030768
36.600 0.029483
37.500 0.028181
38.500 0.026723
39.500 0.025545
40.500 0.024377
41.400 0.023349
42.200 0.022444
43.000 0.021598
44.100 0.020563
45.100 0.019632
46.000 0.018809
47.000 0.017976
48.000 0.017208
49.000 0.016427
50.000 0.015757
50.600 0.015682
51.200 0.015994
52.000 0.015460
53.000 0.014852
54.000 0.014143
55.000 0.013628
56.000 0.013244
57.000 0.012760
58.000 0.012232
59.000 0.011832
60.000 0.011367
61.000 0.010931
62.000 0.010628
63.000 0.010247
64.000 0.009909
65.000 0.009557
65.800 0.009271
66.500 0.009089
67.500 0.008809
68.500 0.008467
69.500 0.008249
70.500 0.007927
71.600 0.007719
72.600 0.007485
73.500 0.007283
74.500 0.007052
75.500 0.006840
76.500 0.006619
77.500 0.006443
78.500 0.006258
79.500 0.006082
80.500 0.005919
81.500 0.005760
82.500 0.005610
83.500 0.005402
84.500 0.005314
85.500 0.005171
86.500 0.005050
87.500 0.004924
88.500 0.004800
89.500 0.004683
90.500 0.004556
91.500 0.005555
92.500 0.007738
93.500 0.009645
94.500 0.012649
95.500 0.014924
96.500 0.017651
97.500 0.010729
98.500 0.074845
99.500 0.277058
100.500 0.232021
101.500 0.036479
102.500 0.010192
103.500 0.027781
104.500 0.273121
105.500 0.720143
106.500 0.958021
107.500 1.181582
108.500 1.235926
109.500 1.269769
110.500 1.301334
111.500 1.282460
112.500 1.228767
113.500 1.237227
114.500 1.139278
115.500 1.036121
116.500 0.950212
117.500 0.740319
118.500 0.452978
119.500 0.124569
120.500 0.021621
121.500 0.009382
122.500 0.018884
123.500 0.119525
124.500 0.407745
125.500 0.694110
126.500 0.773186
127.500 1.006834
128.500 1.148715
129.500 1.206313
130.500 1.193296
131.500 1.304263
132.500 1.332899
133.500 1.344289
134.500 1.411650
135.500 1.380735
136.500 1.376180
137.500 1.397006
138.500 1.425968
139.500 1.434103
140.500 1.434754
141.500 1.421412
142.500 1.424666
143.500 1.392125
144.200 1.435731
144.700 1.432151
145.500 1.438659
146.500 1.404491
147.500 1.413277
148.500 1.409372
149.500 1.397657
150.500 1.414904
151.200 1.404491
151.700 1.405467
152.500 1.374878
153.500 1.358933
154.500 1.390823
155.500 1.355678
156.500 1.281809
157.500 1.326717
158.500 1.351774
159.500 1.377807
160.500 1.321835
161.500 1.330947
162.500 1.273349
163.500 1.285063
164.500 1.307517
165.500 1.210543
166.500 1.324439
167.200 1.245688
167.700 1.279857
168.500 1.312073
169.500 1.277904
170.500 1.262284
171.500 1.280182
172.500 1.260332
173.500 1.290270
174.500 1.261308
175.500 1.283762
176.500 1.221282
177.500 1.268467
178.500 1.248617
179.500 1.267491
180.500 1.275952
181.500 1.265213
182.500 1.246664
183.500 1.242434
184.500 1.209242
185.500 1.217052
186.500 1.213798
187.500 1.217052
188.500 1.212496
189.500 1.209242
190.500 1.196876
191.500 1.191995
192.500 1.193947
193.500 1.166612
194.500 1.193296
195.500 1.184836
196.700 1.185486
197.600 1.166938
198.400 1.162057
199.500 1.151318
200.500 1.132118
201.500 1.116824
202.500 1.108038
203.500 1.124308
204.500 1.126261
205.500 1.100228
206.500 1.097624
207.400 1.115197
207.800 1.114221
208.500 1.110316
209.500 1.096323
210.500 1.088838
211.500 1.087211
212.500 1.082655
213.500 1.053043
214.500 1.073544
215.500 1.062805
216.500 1.034819
217.500 1.032541
218.500 1.038724
219.500 1.059226
220.500 1.033843
221.500 1.005532
222.500 1.002278
223.500 1.040026
224.500 1.013017
225.500 0.988936
226.500 0.975594
227.500 1.000651
228.500 1.005207
229.500 0.979824
230.500 0.989261
231.500 0.982102
232.500 0.907257
233.500 0.963554
234.500 0.911487
235.500 0.961601
236.500 0.915067
237.500 0.941100
238.500 0.882851
239.500 0.922226
240.500 0.909860
241.500 0.911487
242.500 0.938171
243.500 0.917995
244.500 0.930687
245.500 0.926782
246.500 0.911813
247.500 0.898145
248.500 0.904653
249.500 0.889684
250.500 0.926456
251.300 0.893915
251.800 0.885779
252.500 0.862024
253.500 0.856817
254.500 0.860397
255.500 0.891962
256.500 0.885129
257.500 0.904328
258.500 0.905955
259.500 0.897169
260.500 0.881874
261.500 0.869183
262.500 0.883827
263.500 0.890335
264.500 0.934266
265.500 0.933941
266.500 0.907257
267.500 0.920273
268.500 0.925480
269.500 0.904003
270.500 0.904979
271.500 0.882525
272.500 0.881224
273.500 0.895216
274.500 0.841198
275.500 0.851936
276.500 0.876668
277.500 0.894240
278.500 0.881874
279.500 0.758868
280.500 0.802148
281.500 0.901399
282.500 0.897820
283.500 0.885779
284.500 0.875041
285.500 0.850635
286.500 0.876342
287.500 0.873414
288.500 0.879596
289.500 0.879922
291.000 0.894891
293.000 0.880247
295.000 0.872763
297.000 0.872437
299.000 0.872112
301.000 0.872112
303.000 0.869183
305.000 0.866580
307.000 0.860397
309.000 0.858445
311.000 0.852262
313.000 0.847706
315.000 0.845428
317.000 0.843801
319.000 0.826554
321.000 0.831435
323.000 0.820371
325.000 0.826879
327.000 0.831435
329.000 0.829157
331.000 0.826879
332.200 0.707452
332.300 0.706150
332.400 0.707452
332.500 0.705174
332.600 0.698015
332.700 0.689229
332.800 0.703547
332.900 0.716238
333.000 0.727953
333.100 0.734787
333.200 0.730882
333.300 0.718842
333.400 0.701595
333.500 0.698340
333.600 0.686625
333.700 0.678490
333.800 0.686951
333.900 0.691181
334.000 0.696713
334.100 0.698015
334.200 0.694761
334.300 0.708428
334.400 0.720794
334.500 0.719167
334.600 0.710381
334.700 0.692158
334.800 0.667751
334.900 0.655711
335.000 0.663196
335.100 0.673934
335.200 0.677514
335.300 0.679792
335.400 0.683371
335.500 0.697039
335.600 0.705825
335.700 0.705174
335.800 0.691181
335.900 0.674260
336.000 0.657664
336.100 0.655386
336.200 0.668077
336.300 0.681093
336.400 0.687276
336.500 0.676538
336.600 0.667101
336.700 0.664172
336.800 0.663846
336.900 0.663521
337.000 0.656687
337.100 0.651155
337.200 0.640417
337.300 0.641718
337.400 0.650179
337.500 0.669053
337.600 0.689554
337.700 0.690856
337.800 0.679792
337.900 0.670029
338.000 0.667751
338.100 0.672307
338.200 0.676212
338.300 0.684998
338.400 0.687927
338.500 0.693134
338.600 0.690530
338.700 0.678165
338.800 0.669378
338.900 0.682720
339.000 0.698666
339.100 0.710381
339.200 0.705174
339.300 0.689229
339.400 0.694761
339.500 0.708103
339.600 0.719492
339.700 0.725675
339.800 0.729580
339.900 0.719492
340.000 0.706150
340.100 0.694761
340.200 0.683046
340.300 0.681419
340.400 0.680117
340.500 0.684348
340.600 0.678815
340.700 0.670680
340.800 0.672633
340.900 0.677188
341.000 0.684998
341.100 0.682395
341.200 0.679141
341.300 0.686300
341.400 0.692483
341.500 0.694761
341.600 0.687927
341.700 0.683046
341.800 0.691181
341.900 0.700944
342.000 0.709404
342.100 0.709404
342.200 0.700944
342.300 0.689229
342.400 0.682720
342.500 0.686951
342.600 0.690530
342.700 0.696388
342.800 0.703547
342.900 0.710381
343.000 0.711032
343.100 0.701595
343.200 0.691181
343.300 0.686300
343.400 0.694110
343.500 0.707127
343.600 0.710381
343.700 0.706150
343.800 0.697690
343.900 0.690530
344.000 0.683697
344.100 0.672958
344.200 0.667101
344.300 0.663521
344.400 0.665799
344.500 0.677839
344.600 0.692808
344.700 0.707777
344.800 0.718516
344.900 0.728604
345.000 0.712984
345.100 0.690205
345.200 0.672958
345.300 0.666124
345.400 0.678165
345.500 0.679466
345.600 0.671006
345.700 0.668728
345.800 0.668077
345.900 0.672633
346.000 0.671982
346.100 0.671331
346.200 0.674260
346.300 0.679466
346.400 0.677839
346.500 0.671982
346.600 0.675236
346.700 0.684998
346.800 0.692808
346.900 0.698666
347.000 0.701920
347.100 0.700618
347.200 0.692158
347.300 0.677839
347.400 0.668077
347.500 0.661894
347.600 0.665799
347.700 0.678815
347.800 0.688578
347.900 0.697364
348.000 0.704523
348.100 0.698340
348.200 0.688578
348.300 0.683046
348.400 0.683697
348.500 0.695086
348.600 0.707127
348.700 0.708103
348.800 0.699967
348.900 0.688578
349.000 0.682070
349.100 0.686300
349.200 0.692808
349.300 0.691507
349.400 0.689229
349.500 0.684348
349.600 0.677514
349.700 0.679141
349.800 0.678815
349.900 0.680768
350.000 0.676538
350.100 0.668402
350.200 0.668402
350.300 0.670029
350.400 0.671982
350.500 0.671982
350.600 0.671331
350.700 0.671331
350.800 0.666450
350.900 0.663196
351.000 0.664823
351.100 0.667751
351.200 0.669378
351.300 0.666775
351.400 0.663521
351.500 0.668402
351.600 0.677514
351.700 0.684022
351.800 0.687602
351.900 0.682720
352.000 0.677514
352.100 0.675561
352.200 0.672958
352.300 0.669378
352.400 0.664823
352.500 0.661568
352.600 0.666450
352.700 0.673934
352.800 0.681093
352.900 0.688253
353.000 0.696713
353.100 0.702896
353.200 0.699642
353.300 0.688253
353.400 0.681744
353.500 0.677188
353.600 0.681093
353.700 0.683371
353.800 0.681419
353.900 0.689880
354.000 0.693785
354.100 0.691181
354.200 0.692483
354.300 0.700944
354.400 0.704523
354.500 0.702245
354.600 0.698666
354.700 0.693459
354.800 0.692483
354.900 0.690205
355.000 0.693459
355.100 0.704198
355.200 0.703222
355.300 0.691507
355.400 0.683697
355.500 0.684673
355.600 0.691507
355.700 0.700944
355.800 0.703872
355.900 0.704849
356.000 0.703872
356.100 0.700944
356.200 0.698991
356.300 0.693134
356.400 0.682720
356.500 0.678815
356.600 0.677839
356.700 0.678490
356.800 0.673609
356.900 0.668728
357.000 0.667426
357.100 0.662219
357.200 0.655386
357.300 0.648877
357.400 0.650179
357.500 0.657338
357.600 0.663846
357.700 0.665799
357.800 0.666775
357.900 0.664172
358.000 0.660267
358.100 0.655060
358.200 0.652782
358.300 0.657013
358.400 0.651155
358.500 0.640742
358.600 0.630654
358.700 0.627400
358.800 0.635861
358.900 0.649528
359.000 0.658640
359.100 0.659616
359.200 0.657338
359.300 0.655711
359.400 0.658640
359.500 0.666775
359.600 0.672307
359.700 0.673609
359.800 0.674260
359.900 0.679792
360.000 0.681419
360.100 0.675236
360.200 0.667426
360.300 0.660267
360.400 0.659616
360.500 0.664172
360.600 0.668402
360.700 0.665148
360.800 0.661243
360.900 0.663521
361.000 0.665473
361.100 0.667426
361.200 0.668077
361.300 0.668728
361.400 0.672958
361.500 0.683697
361.600 0.685975
361.700 0.681744
361.800 0.673609
361.900 0.667426
362.000 0.673283
362.100 0.678490
362.200 0.681744
362.300 0.682720
362.400 0.685324
362.500 0.695737
362.600 0.708103
362.700 0.714611
362.800 0.707777
362.900 0.697364
363.000 0.682720
363.100 0.672307
363.200 0.677188
363.300 0.691832
363.400 0.699967
363.500 0.697690
363.600 0.692808
363.700 0.688253
363.800 0.687276
363.900 0.691507
364.000 0.695086
364.100 0.691181
364.200 0.684022
364.300 0.675887
364.400 0.673283
364.500 0.674911
364.600 0.672958
364.700 0.671656
364.800 0.673283
364.900 0.672307
365.000 0.671656
365.100 0.674260
365.200 0.682070
365.300 0.686625
365.400 0.691181
365.500 0.696713
365.600 0.701595
365.700 0.703222
365.800 0.701269
365.900 0.699642
366.000 0.696388
366.100 0.688578
366.200 0.685324
366.300 0.685975
366.400 0.689229
366.500 0.693459
366.600 0.694110
366.700 0.691507
366.800 0.686625
366.900 0.680443
367.000 0.680117
367.100 0.684998
367.200 0.695412
367.300 0.699642
367.400 0.695086
367.500 0.688903
367.600 0.678165
367.700 0.671656
367.800 0.669053
367.900 0.669704
368.000 0.674911
368.100 0.678165
368.200 0.675561
368.300 0.672307
368.400 0.666450
368.500 0.658965
368.600 0.657664
368.700 0.659291
368.800 0.675887
368.900 0.693459
369.000 0.691507
369.100 0.681093
369.200 0.677188
369.300 0.687927
369.400 0.700618
369.500 0.702896
369.600 0.687276
369.700 0.670029
369.800 0.679141
369.900 0.713309
370.000 0.751708
370.100 0.753010
370.200 0.713635
370.300 0.659616
370.400 0.629027
370.500 0.636837
370.600 0.671982
370.700 0.718516
370.800 0.741946
370.900 0.729580
371.000 0.685649
371.100 0.645623
371.200 0.620241
371.300 0.638464
371.400 0.697039
371.500 0.763098
371.600 0.812886
371.700 0.840547
371.800 0.827205
371.900 0.768305
372.000 0.685975
372.100 0.614058
372.200 0.581842
372.300 0.608200
372.400 0.687276
372.500 0.763423
372.600 0.829157
372.700 0.876668
372.800 0.899772
372.900 0.902701
373.000 0.880573
373.100 0.824276
373.200 0.736089
373.300 0.646274
373.400 0.569801
373.500 0.553531
373.600 0.597136
373.700 0.676863
373.800 0.772535
373.900 0.876342
374.000 0.939147
374.100 0.985682
374.200 0.999024
374.300 0.992515
374.400 0.965181
374.500 0.925480
374.600 0.863977
374.700 0.795314
374.800 0.705500
374.900 0.622519
375.000 0.575334
375.100 0.576635
375.200 0.628376
375.300 0.735763
375.400 0.833713
375.500 0.910836
375.600 0.971363
375.700 1.004230
375.800 1.030914
375.900 1.047836
376.000 1.058249
376.100 1.066710
376.200 1.064432
376.300 1.046534
376.400 1.023430
376.500 0.976896
376.600 0.920273
376.700 0.844452
376.800 0.739017
376.900 0.651806
377.000 0.571103
377.100 0.553531
377.200 0.596811
377.300 0.685324
377.400 0.765376
377.500 0.858119
377.600 0.929060
377.700 1.004230
377.800 1.074845
377.900 1.129190
378.000 1.186788
378.100 1.221933
378.200 1.246339
378.300 1.260332
378.400 1.267166
378.500 1.264562
378.600 1.257078
378.700 1.232672
378.800 1.206964
378.900 1.175399
379.000 1.134396
379.100 1.092743
379.200 1.027986
379.300 0.961926
379.400 0.875692
379.500 0.777742
379.600 0.683046
379.700 0.587048
379.800 0.546372
379.900 0.565246
380.000 0.639115
380.100 0.739668
380.200 0.853238
380.300 0.927758
380.400 1.011715
380.500 1.068012
380.600 1.122031
380.700 1.179629
380.800 1.223560
380.900 1.271721
381.000 1.304588
381.100 1.329320
381.200 1.336479
381.300 1.337130
381.400 1.337455
381.500 1.342336
381.600 1.351448
381.700 1.363814
381.800 1.364465
381.900 1.339733
382.000 1.318907
382.100 1.301985
382.200 1.295802
382.300 1.281809
382.400 1.245688
382.500 1.207615
382.600 1.161080
382.700 1.118776
382.800 1.061503
382.900 1.003580
383.000 0.945981
383.100 0.863977
383.200 0.787179
383.300 0.681093
383.400 0.592906
383.500 0.534006
383.600 0.525220
383.700 0.566222
383.800 0.649528
383.900 0.731533
384.000 0.823625
384.100 0.917995
384.200 0.998048
384.300 1.083306
384.400 1.140579
384.500 1.199154
384.600 1.248942
384.700 1.288968
384.800 1.326066
384.900 1.346567
385.000 1.368044
385.100 1.392125
385.200 1.422063
385.300 1.448422
385.400 1.457859
385.500 1.456883
385.600 1.451350
385.700 1.448747
385.800 1.453303
385.900 1.465018
386.000 1.481289
386.100 1.494305
386.200 1.495281
386.300 1.483241
386.400 1.471201
386.500 1.464692
386.600 1.468272
386.700 1.471526
386.800 1.473153
386.900 1.467296
387.000 1.448747
387.100 1.428897
387.200 1.399935
387.300 1.383339
387.400 1.369021
387.500 1.355353
387.600 1.335503
387.700 1.293850
387.800 1.256427
387.900 1.216401
388.000 1.187114
388.100 1.153270
388.200 1.099252
388.300 1.042304
388.400 0.961276
388.500 0.883176
388.600 0.787829
388.700 0.677514
388.800 0.596811
388.900 0.551253
389.000 0.573381
389.100 0.649203
389.200 0.741946
389.300 0.823300
389.400 0.910836
389.500 0.973641
389.600 1.049138
389.700 1.108363
389.800 1.159779
389.900 1.206313
390.000 1.237553
390.100 1.279531
390.200 1.316303
390.300 1.351123
390.400 1.375203
390.500 1.392450
390.600 1.417507
390.700 1.443215
390.800 1.477384
390.900 1.506020
391.000 1.523593
391.100 1.530426
391.200 1.527172
391.300 1.518061
391.400 1.512528
391.500 1.522616
391.600 1.542141
391.700 1.548650
391.800 1.550927
391.900 1.547673
392.000 1.548975
392.100 1.553531
392.200 1.555483
392.300 1.560364
392.400 1.561992
392.500 1.561015
392.600 1.553531
392.700 1.539212
392.800 1.517735
392.900 1.493654
393.000 1.459811
393.100 1.391474
393.200 1.284413
393.300 1.176049
393.400 1.154247
393.500 1.228441
393.600 1.333225
393.700 1.433127
393.800 1.496258
393.900 1.520664
394.000 1.527498
394.100 1.533355
394.200 1.532704
394.300 1.530752
394.400 1.528148
394.500 1.515132
394.600 1.504068
394.700 1.492678
394.800 1.477709
394.900 1.466970
395.000 1.458835
395.100 1.448422
395.200 1.433453
395.300 1.422063
395.400 1.404491
395.500 1.378783
395.600 1.352750
395.700 1.321835
395.800 1.297755
395.900 1.263261
396.000 1.222258
396.100 1.173446
396.200 1.111943
396.300 1.061178
396.400 0.990563
396.500 0.907908
396.600 0.804100
396.700 0.670029
396.800 0.565246
396.900 0.482265
397.000 0.472177
397.100 0.520989
397.200 0.611780
397.300 0.704198
397.400 0.806704
397.500 0.881224
397.600 0.963228
397.700 1.030264
397.800 1.091442
397.900 1.155223
398.000 1.195249
398.100 1.239505
398.200 1.273023
398.300 1.305565
398.400 1.337781
398.500 1.362187
398.600 1.385291
398.700 1.404491
398.800 1.429548
398.900 1.446469
399.000 1.458510
399.100 1.472502
399.200 1.479662
399.300 1.493980
399.400 1.504393
399.500 1.511227
399.600 1.515457
399.700 1.511878
399.800 1.511878
399.900 1.522616
400.000 1.530101
400.100 1.533680
400.200 1.533030
400.300 1.527823
400.400 1.524894
400.500 1.521640
400.600 1.523918
400.700 1.532379
400.800 1.543443
400.900 1.551578
401.000 1.556459
401.100 1.555483
401.200 1.553531
401.300 1.553531
401.400 1.553205
401.500 1.558737
401.600 1.566547
401.700 1.575984
401.800 1.584445
401.900 1.587374
402.000 1.586398
402.100 1.585421
402.200 1.582167
402.300 1.575984
402.400 1.566222
402.500 1.558412
402.600 1.554182
402.700 1.558737
402.800 1.564920
402.900 1.569476
403.000 1.571103
403.100 1.570452
403.200 1.570778
403.300 1.571103
403.400 1.575659
403.500 1.585096
403.600 1.595835
403.700 1.605923
403.800 1.603319
403.900 1.593882
404.000 1.583794
404.100 1.580215
404.200 1.585096
404.300 1.585096
404.400 1.569801
404.500 1.549951
404.600 1.539863
404.700 1.550602
404.800 1.567524
404.900 1.576961
405.000 1.577937
405.100 1.580866
405.200 1.581842
405.300 1.572079
405.400 1.559063
405.500 1.555158
405.600 1.556459
405.700 1.564269
405.800 1.565897
405.900 1.569476
406.000 1.574357
406.100 1.567849
406.200 1.550277
406.300 1.532053
406.400 1.522291
406.500 1.511227
406.600 1.508298
406.700 1.505695
406.800 1.501790
406.900 1.501139
407.000 1.488122
407.100 1.464367
407.200 1.452001
407.300 1.451350
407.400 1.457859
407.500 1.457859
407.600 1.442239
407.700 1.425643
407.800 1.415880
407.900 1.418809
408.000 1.422389
408.100 1.414253
408.200 1.406769
408.300 1.393752
408.400 1.381061
408.500 1.362838
408.600 1.343638
408.700 1.326391
408.800 1.303612
408.900 1.284738
409.000 1.251546
409.100 1.222584
409.200 1.192646
409.300 1.150342
409.400 1.112594
409.500 1.052717
409.600 0.995119
409.700 0.928409
409.800 0.849984
409.900 0.768955
410.000 0.663846
410.100 0.595184
410.200 0.568174
410.300 0.610153
410.400 0.685649
410.500 0.780345
410.600 0.848031
410.700 0.924178
410.800 0.984055
410.900 1.040026
411.000 1.096974
411.100 1.135047
411.200 1.178653
411.300 1.211845
411.400 1.244061
411.500 1.275301
411.600 1.300033
411.700 1.322161
411.800 1.335177
411.900 1.349170
412.000 1.358607
412.100 1.370973
412.200 1.383664
412.300 1.397006
412.400 1.413277
412.500 1.424016
412.600 1.428897
412.700 1.431500
412.800 1.431175
412.900 1.430199
413.000 1.427921
413.100 1.427270
413.200 1.432151
413.300 1.441263
413.400 1.459160
413.500 1.470875
413.600 1.479011
413.700 1.487797
413.800 1.494305
413.900 1.501790
414.000 1.501139
414.100 1.493004
414.200 1.482590
414.300 1.472502
414.400 1.472177
414.500 1.476733
414.600 1.487472
414.700 1.491377
414.800 1.494305
414.900 1.497234
415.000 1.501464
415.100 1.506346
415.200 1.505369
415.300 1.499837
415.400 1.493654
415.500 1.492678
