# Wavelength (nm)   F_lamA (normalized erg/cm2/s/A)9.100 0.001167
9.400 0.001351
9.600 0.001481
9.800 0.001617
10.000 0.001757
10.200 0.001902
10.400 0.002052
10.600 0.002206
10.800 0.002365
11.000 0.002526
11.400 0.002859
11.800 0.003200
12.100 0.003463
12.500 0.003817
12.700 0.003996
12.800 0.004086
13.100 0.004354
13.200 0.004445
13.400 0.004625
13.700 0.004892
14.000 0.005159
14.300 0.005425
14.700 0.005773
15.100 0.006115
15.500 0.006449
15.900 0.006773
16.200 0.007011
16.600 0.007318
17.000 0.007613
17.300 0.007828
17.700 0.008104
18.000 0.008303
18.200 0.008430
18.600 0.008678
19.100 0.008969
19.400 0.009134
19.800 0.009343
20.200 0.009538
20.500 0.009677
21.000 0.009893
21.600 0.010127
22.000 0.010269
22.300 0.010368
22.700 0.010489
23.000 0.043222
23.400 0.042273
24.000 0.041031
24.600 0.039980
25.200 0.038884
25.700 0.037190
26.000 0.037146
26.400 0.036649
26.900 0.035627
27.400 0.034633
27.900 0.033523
28.400 0.032676
29.000 0.031537
29.600 0.030237
30.100 0.028586
30.800 0.027651
31.800 0.026629
32.800 0.025168
33.800 0.023722
34.800 0.022393
35.700 0.021341
36.600 0.020348
37.500 0.019354
38.500 0.018215
39.500 0.017368
40.500 0.016506
41.400 0.015746
42.200 0.015074
43.000 0.014457
44.100 0.013720
45.100 0.013051
46.000 0.012453
47.000 0.011855
48.000 0.011318
49.000 0.010760
50.000 0.010299
50.600 0.010137
51.200 0.010221
52.000 0.009851
53.000 0.009429
54.000 0.008945
55.000 0.008576
56.000 0.008317
57.000 0.007990
58.000 0.007642
59.000 0.007368
60.000 0.007055
61.000 0.006757
62.000 0.006556
63.000 0.006303
64.000 0.006088
65.000 0.005857
65.800 0.005669
66.500 0.005557
67.500 0.005375
68.500 0.005159
69.500 0.005023
70.500 0.004822
71.600 0.004696
72.600 0.004557
73.500 0.004438
74.500 0.004303
75.500 0.004181
76.500 0.004056
77.500 0.003969
78.500 0.003871
79.500 0.003788
80.500 0.003716
81.500 0.003649
82.500 0.003593
83.500 0.003503
84.500 0.003495
85.500 0.003457
86.500 0.003441
87.500 0.003427
88.500 0.003421
89.500 0.003425
90.500 0.003427
91.500 0.004943
92.500 0.009002
93.500 0.014265
94.500 0.062547
95.500 0.415279
96.500 0.646363
97.500 0.128571
98.500 2.262635
99.500 3.609407
100.500 3.586036
101.500 1.470932
102.500 0.046041
103.500 1.077710
104.500 3.745253
105.500 4.832019
106.500 4.875840
107.500 5.330120
108.500 5.130003
109.500 5.325738
110.500 5.148992
111.500 5.102249
112.500 4.896290
113.500 4.962022
114.500 4.722466
115.500 4.642127
116.500 4.591002
117.500 4.135261
118.500 3.748174
119.500 2.430616
120.500 0.968303
121.500 0.062767
122.500 0.733421
123.500 2.458370
124.500 3.415133
125.500 3.819749
126.500 3.707274
127.500 4.151329
128.500 4.319311
129.500 4.219982
130.500 4.082676
131.500 4.332457
132.500 4.266725
133.500 4.168858
134.500 4.300321
135.500 4.202454
136.500 4.120654
137.500 4.106047
138.500 4.130879
139.500 4.082676
140.500 4.068069
141.500 3.986269
142.500 3.970202
143.500 3.897166
144.200 3.920538
144.700 3.907391
145.500 3.869413
146.500 3.799299
147.500 3.774467
148.500 3.732106
149.500 3.676599
150.500 3.661992
151.200 3.621093
151.700 3.628396
152.500 3.540754
153.500 3.472100
154.500 3.524686
155.500 3.419515
156.500 3.286591
157.500 3.318726
158.500 3.330412
159.500 3.355244
160.500 3.248612
161.500 3.220859
162.500 3.115688
163.500 3.099620
164.500 3.090856
165.500 2.950628
166.500 3.083552
167.200 2.936021
167.700 2.985685
168.500 3.011978
169.500 2.953550
170.500 2.895121
171.500 2.883436
172.500 2.833772
173.500 2.874671
174.500 2.807479
175.500 2.827929
176.500 2.696465
177.500 2.775343
178.500 2.721297
179.500 2.732983
180.500 2.709611
181.500 2.677476
182.500 2.652644
183.500 2.621969
184.500 2.573766
185.500 2.538709
186.500 2.512416
187.500 2.525562
188.500 2.493427
189.500 2.465673
190.500 2.462752
191.500 2.418931
192.500 2.405784
193.500 2.373649
194.500 2.388256
195.500 2.354660
196.700 2.348817
197.600 2.321063
198.400 2.303535
199.500 2.262635
200.500 2.245107
201.500 2.210050
202.500 2.201285
203.500 2.193982
204.500 2.182296
205.500 2.125329
206.500 2.119486
207.400 2.128250
207.800 2.113643
208.500 2.113643
209.500 2.085890
210.500 2.072743
211.500 2.058136
212.500 2.044990
213.500 2.007011
214.500 2.011394
215.500 1.989483
216.500 1.944201
217.500 1.932515
218.500 1.928133
219.500 1.938358
220.500 1.897458
221.500 1.862401
222.500 1.837569
223.500 1.872626
224.500 1.837569
225.500 1.803973
226.500 1.786445
227.500 1.795209
228.500 1.793748
229.500 1.757230
230.500 1.755770
231.500 1.738241
232.500 1.609699
233.500 1.697342
234.500 1.630149
235.500 1.673970
236.500 1.617003
237.500 1.637453
238.500 1.573181
239.500 1.608238
240.500 1.586328
241.500 1.580485
242.500 1.598013
243.500 1.565878
244.500 1.570260
245.500 1.564417
246.500 1.535203
247.500 1.523517
248.500 1.527900
249.500 1.498685
250.500 1.526439
251.300 1.494303
251.800 1.494303
252.500 1.459684
253.500 1.437920
254.500 1.439235
255.500 1.462168
256.500 1.445954
257.500 1.457201
258.500 1.452381
259.500 1.437482
260.500 1.416448
261.500 1.400672
262.500 1.401548
263.500 1.399357
264.500 1.437336
265.500 1.429448
266.500 1.400672
267.500 1.407245
268.500 1.403447
269.500 1.382559
270.500 1.376132
271.500 1.353199
272.500 1.343704
273.500 1.349401
274.500 1.293748
275.500 1.296085
276.500 1.314490
277.500 1.326030
278.500 1.311715
279.500 1.215600
280.500 1.248758
281.500 1.308355
282.500 1.298861
283.500 1.283961
284.500 1.270815
285.500 1.254455
286.500 1.264242
287.500 1.255624
288.500 1.254747
289.500 1.249781
291.000 1.252118
293.000 1.229769
295.000 1.215162
297.000 1.207420
299.000 1.196757
301.000 1.189892
303.000 1.179959
305.000 1.169734
307.000 1.157902
309.000 1.149138
311.000 1.137160
313.000 1.126351
315.000 1.117733
317.000 1.109115
319.000 1.090418
321.000 1.087204
323.000 1.073912
325.000 1.070552
327.000 1.066024
329.000 1.057990
331.000 1.050248
332.200 0.996640
332.300 1.004090
332.400 0.999562
332.500 0.986123
332.600 0.974730
332.700 0.963044
332.800 0.972831
332.900 0.979988
333.000 0.985977
333.100 0.994157
333.200 0.997371
333.300 0.998247
333.400 0.990067
333.500 0.983640
333.600 0.965527
333.700 0.948583
333.800 0.962898
333.900 0.973415
334.000 0.976775
334.100 0.971516
334.200 0.960853
334.300 0.971954
334.400 0.986708
334.500 0.989483
334.600 0.989629
334.700 0.982325
334.800 0.965527
334.900 0.945223
335.000 0.930470
335.100 0.926526
335.200 0.941572
335.300 0.949460
335.400 0.954280
335.500 0.953550
335.600 0.954426
335.700 0.963482
335.800 0.957932
335.900 0.942302
336.000 0.924920
336.100 0.914549
336.200 0.925212
336.300 0.934122
336.400 0.936897
336.500 0.932954
336.600 0.928279
336.700 0.925066
336.800 0.922875
336.900 0.922436
337.000 0.918639
337.100 0.918200
337.200 0.910020
337.300 0.910751
337.400 0.923897
337.500 0.941718
337.600 0.957639
337.700 0.949898
337.800 0.931785
337.900 0.921414
338.000 0.920245
338.100 0.929886
338.200 0.944493
338.300 0.962606
338.400 0.963921
338.500 0.962606
338.600 0.953696
338.700 0.943617
338.800 0.939089
338.900 0.947122
339.000 0.958954
339.100 0.970494
339.200 0.966988
339.300 0.953257
339.400 0.953550
339.500 0.960853
339.600 0.976921
339.700 0.985393
339.800 0.985393
339.900 0.967134
340.000 0.939673
340.100 0.932515
340.200 0.926965
340.300 0.934560
340.400 0.937044
340.500 0.938942
340.600 0.928571
340.700 0.919077
340.800 0.927987
340.900 0.933830
341.000 0.937628
341.100 0.935583
341.200 0.937044
341.300 0.951358
341.400 0.958954
341.500 0.952235
341.600 0.947707
341.700 0.946830
341.800 0.953842
341.900 0.960853
342.000 0.961291
342.100 0.958516
342.200 0.950482
342.300 0.946246
342.400 0.944347
342.500 0.942010
342.600 0.942448
342.700 0.947561
342.800 0.956325
342.900 0.964359
343.000 0.956617
343.100 0.946100
343.200 0.942010
343.300 0.941718
343.400 0.948875
343.500 0.952381
343.600 0.953550
343.700 0.956471
343.800 0.952673
343.900 0.945808
344.000 0.936751
344.100 0.923751
344.200 0.920830
344.300 0.915133
344.400 0.910751
344.500 0.921268
344.600 0.939089
344.700 0.957786
344.800 0.973853
344.900 0.982618
345.000 0.961437
345.100 0.927111
345.200 0.911627
345.300 0.903155
345.400 0.914110
345.500 0.915133
345.600 0.908998
345.700 0.908122
345.800 0.906661
345.900 0.908414
346.000 0.906807
346.100 0.905492
346.200 0.909582
346.300 0.918931
346.400 0.915279
346.500 0.908560
346.600 0.907683
346.700 0.912358
346.800 0.915133
346.900 0.924043
347.000 0.932661
347.100 0.935729
347.200 0.925796
347.300 0.903447
347.400 0.896290
347.500 0.893368
347.600 0.899796
347.700 0.912504
347.800 0.919077
347.900 0.922436
348.000 0.926380
348.100 0.924920
348.200 0.920391
348.300 0.915863
348.400 0.915717
348.500 0.925942
348.600 0.935875
348.700 0.938796
348.800 0.930032
348.900 0.918493
349.000 0.909582
349.100 0.910459
349.200 0.914403
349.300 0.916886
349.400 0.915133
349.500 0.905054
349.600 0.900964
349.700 0.903885
349.800 0.908852
349.900 0.913818
350.000 0.902279
350.100 0.895998
350.200 0.901840
350.300 0.901402
350.400 0.898335
350.500 0.891323
350.600 0.887818
350.700 0.890009
350.800 0.889571
350.900 0.891469
351.000 0.898189
351.100 0.904178
351.200 0.904178
351.300 0.893953
351.400 0.881245
351.500 0.884750
351.600 0.893514
351.700 0.903739
351.800 0.908998
351.900 0.905784
352.000 0.903447
352.100 0.902133
352.200 0.898919
352.300 0.897897
352.400 0.894829
352.500 0.894975
352.600 0.901987
352.700 0.904470
352.800 0.906953
352.900 0.911627
353.000 0.917032
353.100 0.921998
353.200 0.925066
353.300 0.918346
353.400 0.904178
353.500 0.895998
353.600 0.896582
353.700 0.903009
353.800 0.908560
353.900 0.913380
354.000 0.915571
354.100 0.913672
354.200 0.911189
354.300 0.912796
354.400 0.915133
354.500 0.916448
354.600 0.919223
354.700 0.919515
354.800 0.921122
354.900 0.919077
355.000 0.917908
355.100 0.921706
355.200 0.920538
355.300 0.915133
355.400 0.905930
355.500 0.902717
355.600 0.911773
355.700 0.921560
355.800 0.925212
355.900 0.920538
356.000 0.913672
356.100 0.916009
356.200 0.919661
356.300 0.917762
356.400 0.908706
356.500 0.897458
356.600 0.897166
356.700 0.901840
356.800 0.904178
356.900 0.901694
357.000 0.893807
357.100 0.880368
357.200 0.864008
357.300 0.861087
357.400 0.863278
357.500 0.865615
357.600 0.868536
357.700 0.869559
357.800 0.868829
357.900 0.866784
358.000 0.866345
358.100 0.864300
358.200 0.862986
358.300 0.863862
358.400 0.859188
358.500 0.853491
358.600 0.845165
358.700 0.840199
358.800 0.842390
358.900 0.849693
359.000 0.858019
359.100 0.861233
359.200 0.859626
359.300 0.859480
359.400 0.860795
359.500 0.865615
359.600 0.869851
359.700 0.870874
359.800 0.872042
359.900 0.873065
360.000 0.872042
360.100 0.866930
360.200 0.866053
360.300 0.865177
360.400 0.863424
360.500 0.864885
360.600 0.867806
360.700 0.867806
360.800 0.868829
360.900 0.871458
361.000 0.871896
361.100 0.872626
361.200 0.871166
361.300 0.870143
361.400 0.874963
361.500 0.880660
361.600 0.882705
361.700 0.885919
361.800 0.886211
361.900 0.881537
362.000 0.880660
362.100 0.879200
362.200 0.885481
362.300 0.894537
362.400 0.894975
362.500 0.898627
362.600 0.904032
362.700 0.910020
362.800 0.911335
362.900 0.902863
363.000 0.889424
363.100 0.882559
363.200 0.886503
363.300 0.898481
363.400 0.905784
363.500 0.904762
363.600 0.892930
363.700 0.883436
363.800 0.884458
363.900 0.888840
364.000 0.891616
364.100 0.888694
364.200 0.882121
364.300 0.875840
364.400 0.874525
364.500 0.878323
364.600 0.878177
364.700 0.876716
364.800 0.876570
364.900 0.875840
365.000 0.876278
365.100 0.876570
365.200 0.880514
365.300 0.887379
365.400 0.891031
365.500 0.889717
365.600 0.889132
365.700 0.887672
365.800 0.890739
365.900 0.892200
366.000 0.886065
366.100 0.877885
366.200 0.872626
366.300 0.874817
366.400 0.880076
366.500 0.883290
366.600 0.880952
366.700 0.874525
366.800 0.870289
366.900 0.867222
367.000 0.869559
367.100 0.874233
367.200 0.880368
367.300 0.882705
367.400 0.878907
367.500 0.869705
367.600 0.857581
367.700 0.852907
367.800 0.852030
367.900 0.856413
368.000 0.860210
368.100 0.864446
368.200 0.862986
368.300 0.860502
368.400 0.860356
368.500 0.856559
368.600 0.850278
368.700 0.851008
368.800 0.861817
368.900 0.877155
369.000 0.880806
369.100 0.869413
369.200 0.868390
369.300 0.878907
369.400 0.893076
369.500 0.897458
369.600 0.875256
369.700 0.862986
369.800 0.870143
369.900 0.901256
370.000 0.936459
370.100 0.942010
370.200 0.913672
370.300 0.855390
370.400 0.826760
370.500 0.827052
370.600 0.871020
370.700 0.917908
370.800 0.954426
370.900 0.937336
371.000 0.884312
371.100 0.834794
371.200 0.804996
371.300 0.824861
371.400 0.880806
371.500 0.969617
371.600 1.029360
371.700 1.066462
371.800 1.054338
371.900 0.993281
372.000 0.887964
372.100 0.821356
372.200 0.781040
372.300 0.810108
372.400 0.889863
372.500 0.995910
372.600 1.071867
372.700 1.141543
372.800 1.169296
372.900 1.170757
373.000 1.141543
373.100 1.067777
373.200 0.946538
373.300 0.852907
373.400 0.768770
373.500 0.752410
373.600 0.800613
373.700 0.907829
373.800 1.014169
373.900 1.146509
374.000 1.225387
374.100 1.284838
374.200 1.308647
374.300 1.303535
374.400 1.272276
374.500 1.219544
374.600 1.131318
374.700 1.027315
374.800 0.919369
374.900 0.802366
375.000 0.755624
375.100 0.759714
375.200 0.829974
375.300 0.948145
375.400 1.083991
375.500 1.179229
375.600 1.275051
375.700 1.324715
375.800 1.362840
375.900 1.380076
376.000 1.379930
376.100 1.377301
376.200 1.376570
376.300 1.355974
376.400 1.324131
376.500 1.260882
376.600 1.172802
376.700 1.085597
376.800 0.959831
376.900 0.844727
377.000 0.756938
377.100 0.720859
377.200 0.771107
377.300 0.885335
377.400 0.991820
377.500 1.113351
377.600 1.213848
377.700 1.301344
377.800 1.391616
377.900 1.452381
378.000 1.511832
378.100 1.542507
378.200 1.564417
378.300 1.580485
378.400 1.590710
378.500 1.590710
378.600 1.581946
378.700 1.558574
378.800 1.533742
378.900 1.500146
379.000 1.452089
379.100 1.401694
379.200 1.321940
379.300 1.233275
379.400 1.126351
379.500 0.990067
379.600 0.878761
379.700 0.767309
379.800 0.715016
379.900 0.735904
380.000 0.831873
380.100 0.946100
380.200 1.091440
380.300 1.192229
380.400 1.294625
380.500 1.371896
380.600 1.430470
380.700 1.494303
380.800 1.539585
380.900 1.589249
381.000 1.625767
381.100 1.649138
381.200 1.653520
381.300 1.650599
381.400 1.646217
381.500 1.653520
381.600 1.653520
381.700 1.649138
381.800 1.640374
381.900 1.617003
382.000 1.599474
382.100 1.587788
382.200 1.589249
382.300 1.581946
382.400 1.555653
382.500 1.520596
382.600 1.472393
382.700 1.426819
382.800 1.366491
382.900 1.294186
383.000 1.220859
383.100 1.116272
383.200 1.020742
383.300 0.899211
383.400 0.772422
383.500 0.713848
383.600 0.700117
383.700 0.753871
383.800 0.853783
383.900 0.965235
384.000 1.072159
384.100 1.195881
384.200 1.284254
384.300 1.380076
384.400 1.443178
384.500 1.503067
384.600 1.555653
384.700 1.590710
384.800 1.624306
384.900 1.643295
385.000 1.660824
385.100 1.678352
385.200 1.690038
385.300 1.700263
385.400 1.704645
385.500 1.706106
385.600 1.706106
385.700 1.709027
385.800 1.723634
385.900 1.739702
386.000 1.748466
386.100 1.748466
386.200 1.735320
386.300 1.707566
386.400 1.701724
386.500 1.704645
386.600 1.710488
386.700 1.716331
386.800 1.719252
386.900 1.717791
387.000 1.706106
387.100 1.690038
387.200 1.668127
387.300 1.653520
387.400 1.644756
387.500 1.635992
387.600 1.617003
387.700 1.583406
387.800 1.552732
387.900 1.514753
388.000 1.478235
388.100 1.434414
388.200 1.365031
388.300 1.297838
388.400 1.203330
388.500 1.102834
388.600 0.992550
388.700 0.855244
388.800 0.763219
388.900 0.709027
389.000 0.730353
389.100 0.811861
389.200 0.935583
389.300 1.038271
389.400 1.154689
389.500 1.239702
389.600 1.325007
389.700 1.396290
389.800 1.444347
389.900 1.489921
390.000 1.524978
390.100 1.564417
390.200 1.602396
390.300 1.628688
390.400 1.647677
390.500 1.660824
390.600 1.676892
390.700 1.697342
390.800 1.723634
390.900 1.754309
391.000 1.770377
391.100 1.777680
391.200 1.773298
391.300 1.763073
391.400 1.754309
391.500 1.755770
391.600 1.768916
391.700 1.776220
391.800 1.780602
391.900 1.777680
392.000 1.779141
392.100 1.782063
392.200 1.782063
392.300 1.784984
392.400 1.784984
392.500 1.783523
392.600 1.779141
392.700 1.770377
392.800 1.752848
392.900 1.733859
393.000 1.711949
393.100 1.662285
393.200 1.586328
393.300 1.498685
393.400 1.470932
393.500 1.508910
393.600 1.596553
393.700 1.669588
393.800 1.720713
393.900 1.747006
394.000 1.761613
394.100 1.770377
394.200 1.770377
394.300 1.764534
394.400 1.755770
394.500 1.738241
394.600 1.728016
394.700 1.723634
394.800 1.716331
394.900 1.707566
395.000 1.697342
395.100 1.685656
395.200 1.675431
395.300 1.669588
395.400 1.659363
395.500 1.638913
395.600 1.615542
395.700 1.586328
395.800 1.562956
395.900 1.529360
396.000 1.484078
396.100 1.434999
396.200 1.372626
396.300 1.320333
396.400 1.240871
396.500 1.145048
396.600 1.031697
396.700 0.883290
396.800 0.768478
396.900 0.672656
397.000 0.641250
397.100 0.678644
397.200 0.772422
397.300 0.876132
397.400 1.004528
397.500 1.104148
397.600 1.202600
397.700 1.285130
397.800 1.343120
397.900 1.405200
398.000 1.446976
398.100 1.488460
398.200 1.523517
398.300 1.552732
398.400 1.583406
398.500 1.609699
398.600 1.630149
398.700 1.644756
398.800 1.656442
398.900 1.666667
399.000 1.679813
399.100 1.691499
399.200 1.700263
399.300 1.707566
399.400 1.714870
399.500 1.719252
399.600 1.722174
399.700 1.723634
399.800 1.722174
399.900 1.725095
400.000 1.722174
400.100 1.716331
400.200 1.716331
400.300 1.711949
400.400 1.709027
400.500 1.707566
400.600 1.709027
400.700 1.710488
400.800 1.714870
400.900 1.717791
401.000 1.719252
401.100 1.719252
401.200 1.723634
401.300 1.728016
401.400 1.728016
401.500 1.732398
401.600 1.741163
401.700 1.748466
401.800 1.757230
401.900 1.760152
402.000 1.761613
402.100 1.758691
402.200 1.747006
402.300 1.730938
402.400 1.713409
402.500 1.697342
402.600 1.690038
402.700 1.695881
402.800 1.706106
402.900 1.720713
403.000 1.733859
403.100 1.739702
403.200 1.747006
403.300 1.751388
403.400 1.755770
403.500 1.763073
403.600 1.765995
403.700 1.770377
403.800 1.771838
403.900 1.768916
404.000 1.765995
404.100 1.760152
404.200 1.757230
404.300 1.752848
404.400 1.741163
404.500 1.728016
404.600 1.722174
404.700 1.729477
404.800 1.741163
404.900 1.749927
405.000 1.751388
405.100 1.751388
405.200 1.745545
405.300 1.738241
405.400 1.730938
405.500 1.733859
405.600 1.736781
405.700 1.741163
405.800 1.739702
405.900 1.738241
406.000 1.739702
406.100 1.732398
406.200 1.719252
406.300 1.709027
406.400 1.700263
406.500 1.679813
406.600 1.668127
406.700 1.668127
406.800 1.665206
406.900 1.666667
407.000 1.659363
407.100 1.643295
407.200 1.634531
407.300 1.630149
407.400 1.631610
407.500 1.630149
407.600 1.618463
407.700 1.608238
407.800 1.598013
407.900 1.596553
408.000 1.602396
408.100 1.602396
408.200 1.598013
408.300 1.587788
408.400 1.574642
408.500 1.558574
408.600 1.539585
408.700 1.524978
408.800 1.508910
408.900 1.494303
409.000 1.468011
409.100 1.438650
409.200 1.404032
409.300 1.356705
409.400 1.311715
409.500 1.244961
409.600 1.178060
409.700 1.099620
409.800 1.004236
409.900 0.908414
410.000 0.797254
410.100 0.718814
410.200 0.693690
410.300 0.731668
410.400 0.812445
410.500 0.921998
410.600 1.010371
410.700 1.103126
410.800 1.178352
410.900 1.239118
411.000 1.297984
411.100 1.340637
411.200 1.383582
411.300 1.414841
411.400 1.443178
411.500 1.472393
411.600 1.497225
411.700 1.513292
411.800 1.519135
411.900 1.526439
412.000 1.535203
412.100 1.545428
412.200 1.552732
412.300 1.561496
412.400 1.573181
412.500 1.586328
412.600 1.581946
412.700 1.571721
412.800 1.564417
412.900 1.561496
413.000 1.560035
413.100 1.564417
413.200 1.573181
413.300 1.586328
413.400 1.603856
413.500 1.614081
413.600 1.622845
413.700 1.628688
413.800 1.635992
413.900 1.643295
414.000 1.641835
414.100 1.633070
414.200 1.621385
414.300 1.611160
414.400 1.606778
414.500 1.611160
414.600 1.621385
414.700 1.628688
414.800 1.630149
414.900 1.631610
415.000 1.635992
415.100 1.641835
415.200 1.643295
415.300 1.643295
415.400 1.640374
415.500 1.637453
