# Wavelength (nm)   F_lamA (normalized erg/cm2/s/A)9.100 0.000079
9.400 0.000106
9.600 0.000127
9.800 0.000152
10.000 0.000180
10.200 0.000212
10.400 0.000248
10.600 0.000287
10.800 0.000330
11.000 0.000378
11.400 0.000487
11.800 0.000614
12.100 0.000722
12.500 0.000882
12.700 0.000970
12.800 0.001015
13.100 0.001159
13.200 0.001209
13.400 0.001313
13.700 0.001477
14.000 0.001650
14.300 0.001833
14.700 0.002091
15.100 0.002362
15.500 0.002646
15.900 0.002941
16.200 0.003169
16.600 0.003480
17.000 0.003799
17.300 0.004038
17.700 0.004367
18.000 0.004610
18.200 0.004774
18.600 0.005106
19.100 0.005517
19.400 0.005760
19.800 0.006085
20.200 0.006403
20.500 0.006639
21.000 0.007026
21.600 0.007474
22.000 0.007765
22.300 0.007974
22.700 0.008251
23.000 0.050445
23.400 0.049555
24.000 0.048357
24.600 0.047433
25.200 0.046509
25.700 0.045072
26.000 0.045140
26.400 0.045140
26.900 0.044079
27.400 0.043018
27.900 0.041821
28.400 0.040897
29.000 0.039630
29.600 0.038193
30.100 0.036448
30.800 0.035900
31.800 0.034634
32.800 0.032940
33.800 0.031287
34.800 0.029726
35.700 0.028504
36.600 0.027317
37.500 0.026123
38.500 0.024781
39.500 0.023693
40.500 0.022615
41.400 0.021667
42.200 0.020835
43.000 0.020055
44.100 0.019097
45.100 0.018238
46.000 0.017481
47.000 0.016711
48.000 0.015999
49.000 0.015281
50.000 0.014658
50.600 0.014589
51.200 0.014867
52.000 0.014374
53.000 0.013812
54.000 0.013162
55.000 0.012690
56.000 0.012334
57.000 0.011886
58.000 0.011400
59.000 0.011027
60.000 0.010599
61.000 0.010198
62.000 0.009914
63.000 0.009562
64.000 0.009251
65.000 0.008925
65.800 0.008658
66.500 0.008491
67.500 0.008227
68.500 0.007912
69.500 0.007710
70.500 0.007413
71.600 0.007218
72.600 0.006999
73.500 0.006814
74.500 0.006598
75.500 0.006400
76.500 0.006194
77.500 0.006030
78.500 0.005859
79.500 0.005695
80.500 0.005541
81.500 0.005390
82.500 0.005253
83.500 0.005055
84.500 0.004973
85.500 0.004839
86.500 0.004723
87.500 0.004603
88.500 0.004490
89.500 0.004377
90.500 0.004257
91.500 0.005192
92.500 0.007166
93.500 0.008888
94.500 0.011533
95.500 0.012721
96.500 0.014339
97.500 0.009579
98.500 0.030650
99.500 0.111259
100.500 0.089459
101.500 0.018426
102.500 0.009093
103.500 0.015633
104.500 0.109240
105.500 0.363450
106.500 0.547228
107.500 0.716975
108.500 0.775154
109.500 0.798426
110.500 0.843258
111.500 0.831622
112.500 0.791581
113.500 0.794661
114.500 0.718001
115.500 0.627310
116.500 0.546543
117.500 0.385695
118.500 0.195551
119.500 0.043224
120.500 0.012574
121.500 0.007437
122.500 0.012098
123.500 0.040726
124.500 0.173272
125.500 0.363450
126.500 0.450034
127.500 0.626283
128.500 0.748118
129.500 0.809719
130.500 0.811088
131.500 0.894935
132.500 0.924709
133.500 0.939425
134.500 0.989049
135.500 0.966804
136.500 0.965777
137.500 0.982546
138.500 1.003422
139.500 1.011294
140.500 1.010951
141.500 1.003080
142.500 1.005133
143.500 0.981177
144.200 1.016769
144.700 1.012320
145.500 1.019507
146.500 0.994182
147.500 1.003080
148.500 1.000684
149.500 0.994182
150.500 1.009240
151.200 1.002738
151.700 1.001711
152.500 0.981862
153.500 0.973648
154.500 0.997604
155.500 0.975359
156.500 0.921629
157.500 0.959959
158.500 0.982546
159.500 1.003080
160.500 0.959274
161.500 0.973306
162.500 0.930869
163.500 0.943190
164.500 0.967830
165.500 0.888775
166.500 0.988364
167.200 0.926762
167.700 0.958590
168.500 0.986653
169.500 0.960986
170.500 0.952430
171.500 0.971595
172.500 0.958248
173.500 0.984600
174.500 0.963039
175.500 0.984257
176.500 0.934292
177.500 0.973990
178.500 0.962012
179.500 0.981177
180.500 1.000684
181.500 0.993840
182.500 0.976386
183.500 0.977413
184.500 0.946954
185.500 0.958248
186.500 0.959617
187.500 0.962012
188.500 0.960301
189.500 0.960986
190.500 0.949350
191.500 0.950719
192.500 0.955510
193.500 0.930185
194.500 0.957563
195.500 0.952430
196.700 0.956537
197.600 0.940452
198.400 0.937372
199.500 0.929500
200.500 0.912731
201.500 0.903149
202.500 0.892539
203.500 0.912389
204.500 0.918207
205.500 0.897673
206.500 0.895619
207.400 0.915127
207.800 0.915127
208.500 0.911362
209.500 0.899042
210.500 0.892539
211.500 0.893566
212.500 0.891855
213.500 0.862423
214.500 0.885352
215.500 0.877139
216.500 0.852841
217.500 0.852156
218.500 0.860370
219.500 0.881930
220.500 0.860370
221.500 0.834018
222.500 0.835044
223.500 0.872690
224.500 0.846338
225.500 0.824778
226.500 0.812457
227.500 0.839151
228.500 0.844969
229.500 0.821013
230.500 0.832649
231.500 0.828200
232.500 0.762149
233.500 0.813142
234.500 0.764887
235.500 0.816564
236.500 0.772416
237.500 0.798426
238.500 0.741958
239.500 0.780972
240.500 0.770363
241.500 0.773101
242.500 0.802190
243.500 0.784394
244.500 0.798426
245.500 0.794319
246.500 0.783025
247.500 0.768994
248.500 0.775496
249.500 0.763176
250.500 0.801506
251.300 0.768309
251.800 0.759754
252.500 0.737851
253.500 0.734428
254.500 0.738535
255.500 0.771389
256.500 0.766598
257.500 0.787817
258.500 0.789870
259.500 0.782341
260.500 0.767967
261.500 0.755989
262.500 0.774470
263.500 0.781999
264.500 0.827173
265.500 0.828200
266.500 0.801506
267.500 0.815537
268.500 0.822724
269.500 0.800479
270.500 0.802875
271.500 0.780287
272.500 0.780972
273.500 0.796715
274.500 0.741958
275.500 0.755305
276.500 0.780972
277.500 0.799110
278.500 0.788159
279.500 0.659480
280.500 0.704312
281.500 0.811773
282.500 0.809035
283.500 0.797741
284.500 0.787132
285.500 0.762491
286.500 0.790554
287.500 0.787817
288.500 0.796030
289.500 0.796030
291.000 0.815195
293.000 0.801848
295.000 0.795346
297.000 0.796372
299.000 0.798768
301.000 0.799452
303.000 0.798426
305.000 0.797741
307.000 0.792950
309.000 0.792608
311.000 0.787474
313.000 0.784394
315.000 0.784394
317.000 0.783710
319.000 0.766940
321.000 0.773785
323.000 0.763176
325.000 0.772074
327.000 0.778576
329.000 0.778234
331.000 0.776865
332.200 0.653320
332.300 0.648528
332.400 0.652635
332.500 0.652977
332.600 0.647159
332.700 0.635181
332.800 0.643053
332.900 0.654689
333.000 0.668378
333.100 0.683094
333.200 0.683778
333.300 0.674880
333.400 0.656400
333.500 0.645448
333.600 0.630390
333.700 0.624914
333.800 0.634155
333.900 0.637919
334.000 0.639630
334.100 0.638946
334.200 0.637919
334.300 0.653662
334.400 0.669405
334.500 0.670431
334.600 0.660849
334.700 0.638946
334.800 0.610883
334.900 0.600616
335.000 0.613621
335.100 0.633128
335.200 0.638946
335.300 0.638946
335.400 0.639630
335.500 0.645448
335.600 0.650924
335.700 0.648871
335.800 0.633470
335.900 0.618754
336.000 0.605407
336.100 0.605749
336.200 0.616359
336.300 0.627652
336.400 0.634839
336.500 0.626626
336.600 0.618412
336.700 0.611567
336.800 0.607803
336.900 0.608487
337.000 0.604038
337.100 0.601643
337.200 0.592060
337.300 0.594114
337.400 0.604038
337.500 0.620808
337.600 0.639288
337.700 0.643395
337.800 0.634155
337.900 0.623203
338.000 0.617728
338.100 0.619781
338.200 0.621492
338.300 0.630732
338.400 0.633470
338.500 0.639973
338.600 0.639630
338.700 0.628679
338.800 0.623546
338.900 0.635524
339.000 0.647844
339.100 0.656057
339.200 0.649555
339.300 0.635524
339.400 0.640315
339.500 0.653320
339.600 0.667693
339.700 0.675222
339.800 0.679671
339.900 0.672485
340.000 0.663587
340.100 0.653320
340.200 0.638946
340.300 0.634155
340.400 0.632444
340.500 0.636893
340.600 0.631075
340.700 0.621150
340.800 0.619439
340.900 0.622177
341.000 0.630390
341.100 0.629706
341.200 0.630048
341.300 0.638946
341.400 0.647844
341.500 0.650240
341.600 0.640999
341.700 0.637577
341.800 0.646133
341.900 0.656400
342.000 0.663244
342.100 0.659822
342.200 0.650582
342.300 0.642710
342.400 0.639973
342.500 0.644764
342.600 0.647844
342.700 0.652977
342.800 0.659480
342.900 0.667351
343.000 0.668036
343.100 0.657084
343.200 0.647502
343.300 0.642710
343.400 0.651951
343.500 0.664271
343.600 0.665298
343.700 0.659480
343.800 0.651608
343.900 0.645106
344.000 0.636550
344.100 0.622519
344.200 0.613279
344.300 0.609514
344.400 0.614990
344.500 0.631417
344.600 0.649897
344.700 0.667351
344.800 0.677960
344.900 0.685147
345.000 0.667009
345.100 0.644422
345.200 0.627995
345.300 0.624230
345.400 0.635181
345.500 0.637235
345.600 0.628337
345.700 0.624914
345.800 0.623888
345.900 0.626626
346.000 0.625599
346.100 0.625941
346.200 0.630732
346.300 0.637235
346.400 0.637235
346.500 0.630732
346.600 0.632101
346.700 0.639973
346.800 0.648528
346.900 0.657769
347.000 0.663587
347.100 0.662560
347.200 0.652635
347.300 0.636208
347.400 0.625941
347.500 0.619097
347.600 0.621492
347.700 0.633470
347.800 0.645448
347.900 0.658111
348.000 0.665640
348.100 0.659480
348.200 0.646817
348.300 0.637919
348.400 0.637919
348.500 0.651951
348.600 0.667351
348.700 0.669405
348.800 0.660507
348.900 0.647159
349.000 0.637235
349.100 0.638946
349.200 0.646817
349.300 0.647844
349.400 0.645448
349.500 0.636893
349.600 0.625599
349.700 0.627652
349.800 0.632786
349.900 0.638946
350.000 0.637235
350.100 0.630390
350.200 0.628679
350.300 0.629021
350.400 0.633470
350.500 0.634497
350.600 0.634155
350.700 0.634839
350.800 0.630048
350.900 0.625599
351.000 0.627310
351.100 0.630732
351.200 0.633812
351.300 0.633812
351.400 0.630732
351.500 0.633812
351.600 0.638946
351.700 0.643053
351.800 0.645448
351.900 0.639288
352.000 0.632101
352.100 0.630048
352.200 0.629706
352.300 0.628679
352.400 0.623888
352.500 0.621834
352.600 0.629363
352.700 0.640657
352.800 0.652293
352.900 0.662902
353.000 0.672485
353.100 0.675907
353.200 0.673169
353.300 0.664613
353.400 0.660164
353.500 0.653662
353.600 0.650240
353.700 0.648871
353.800 0.648186
353.900 0.655031
354.000 0.658795
354.100 0.656742
354.200 0.658111
354.300 0.666324
354.400 0.669062
354.500 0.666324
354.600 0.661533
354.700 0.656400
354.800 0.657084
354.900 0.656057
355.000 0.660164
355.100 0.668378
355.200 0.665640
355.300 0.656400
355.400 0.650924
355.500 0.652977
355.600 0.657426
355.700 0.665640
355.800 0.666324
355.900 0.667009
356.000 0.665982
356.100 0.665982
356.200 0.667693
356.300 0.659822
356.400 0.642710
356.500 0.633812
356.600 0.632444
356.700 0.636208
356.800 0.633470
356.900 0.627310
357.000 0.623888
357.100 0.618070
357.200 0.614305
357.300 0.609856
357.400 0.610883
357.500 0.617043
357.600 0.625257
357.700 0.630732
357.800 0.633470
357.900 0.629021
358.000 0.625257
358.100 0.621834
358.200 0.625599
358.300 0.631075
358.400 0.619097
358.500 0.602327
358.600 0.586927
358.700 0.584873
358.800 0.595483
358.900 0.611910
359.000 0.622519
359.100 0.623888
359.200 0.621150
359.300 0.619097
359.400 0.622861
359.500 0.632786
359.600 0.639973
359.700 0.642026
359.800 0.640657
359.900 0.644764
360.000 0.645448
360.100 0.637577
360.200 0.628337
360.300 0.619439
360.400 0.619097
360.500 0.624572
360.600 0.629363
360.700 0.628337
360.800 0.623888
360.900 0.625257
361.000 0.627652
361.100 0.630390
361.200 0.631075
361.300 0.631075
361.400 0.636550
361.500 0.650240
361.600 0.652977
361.700 0.646133
361.800 0.635866
361.900 0.629021
362.000 0.637235
362.100 0.642710
362.200 0.646817
362.300 0.649213
362.400 0.651608
362.500 0.662902
362.600 0.675907
362.700 0.682752
362.800 0.675907
362.900 0.664613
363.000 0.647844
363.100 0.637577
363.200 0.642026
363.300 0.656742
363.400 0.667009
363.500 0.664956
363.600 0.660849
363.700 0.657769
363.800 0.658795
363.900 0.664613
364.000 0.666667
364.100 0.661191
364.200 0.652293
364.300 0.644422
364.400 0.642368
364.500 0.643737
364.600 0.640657
364.700 0.639630
364.800 0.640657
364.900 0.639288
365.000 0.640315
365.100 0.643395
365.200 0.651951
365.300 0.657426
365.400 0.662560
365.500 0.668378
365.600 0.673511
365.700 0.673854
365.800 0.671458
365.900 0.670089
366.000 0.666667
366.100 0.658795
366.200 0.657084
366.300 0.658453
366.400 0.660849
366.500 0.663929
366.600 0.663587
366.700 0.661191
366.800 0.657769
366.900 0.652293
367.000 0.652977
367.100 0.659138
367.200 0.668378
367.300 0.672827
367.400 0.669062
367.500 0.663244
367.600 0.651266
367.700 0.643395
367.800 0.640315
367.900 0.641684
368.000 0.646817
368.100 0.648528
368.200 0.645448
368.300 0.644079
368.400 0.636550
368.500 0.625257
368.600 0.620465
368.700 0.624230
368.800 0.648186
368.900 0.667351
369.000 0.665640
369.100 0.654689
369.200 0.651608
369.300 0.666324
369.400 0.679671
369.500 0.680356
369.600 0.661533
369.700 0.642710
369.800 0.657769
369.900 0.693703
370.000 0.732717
370.100 0.727926
370.200 0.683094
370.300 0.625941
370.400 0.595140
370.500 0.607803
370.600 0.645791
370.700 0.695756
370.800 0.718686
370.900 0.705681
371.000 0.656057
371.100 0.616359
371.200 0.594114
371.300 0.619097
371.400 0.681040
371.500 0.748118
371.600 0.794319
371.700 0.818617
371.800 0.800479
371.900 0.739562
372.000 0.653320
372.100 0.583162
372.200 0.556810
372.300 0.587269
372.400 0.669747
372.500 0.745038
372.600 0.805613
372.700 0.847707
372.800 0.868925
372.900 0.872348
373.000 0.849760
373.100 0.796372
373.200 0.703628
373.300 0.614648
373.400 0.541752
373.500 0.529432
373.600 0.573922
373.700 0.657426
373.800 0.749829
373.900 0.849418
374.000 0.907598
374.100 0.947981
374.200 0.957221
374.300 0.949692
374.400 0.921287
374.500 0.882615
374.600 0.823409
374.700 0.755305
374.800 0.669405
374.900 0.588638
375.000 0.547228
375.100 0.560233
375.200 0.617728
375.300 0.722793
375.400 0.816906
375.500 0.887064
375.600 0.936687
375.700 0.959617
375.800 0.976728
375.900 0.990418
376.000 0.999658
376.100 1.009582
376.200 1.010951
376.300 0.997604
376.400 0.977413
376.500 0.936003
376.600 0.879535
376.700 0.810062
376.800 0.711157
376.900 0.627652
377.000 0.547912
377.100 0.536961
377.200 0.581793
377.300 0.671458
377.400 0.749144
377.500 0.834360
377.600 0.901095
377.700 0.969199
377.800 1.035592
377.900 1.085216
378.000 1.138604
378.100 1.170431
378.200 1.191307
378.300 1.203628
378.400 1.207734
378.500 1.201232
378.600 1.190623
378.700 1.165298
378.800 1.140657
378.900 1.112594
379.000 1.076318
379.100 1.039699
379.200 0.980835
379.300 0.918549
379.400 0.839836
379.500 0.745722
379.600 0.658795
379.700 0.567762
379.800 0.532170
379.900 0.552704
380.000 0.631075
380.100 0.727926
380.200 0.836071
380.300 0.907255
380.400 0.983231
380.500 1.031485
380.600 1.076318
380.700 1.129706
380.800 1.172827
380.900 1.220055
381.000 1.249144
381.100 1.268309
381.200 1.267625
381.300 1.262491
381.400 1.258042
381.500 1.264887
381.600 1.276865
381.700 1.295346
381.800 1.299452
381.900 1.272416
382.000 1.251198
382.100 1.236482
382.200 1.229979
382.300 1.215264
382.400 1.175222
382.500 1.136550
382.600 1.094456
382.700 1.056468
382.800 1.005476
382.900 0.952772
383.000 0.901095
383.100 0.824435
383.200 0.749487
383.300 0.646817
383.400 0.563997
383.500 0.510267
383.600 0.509582
383.700 0.552361
383.800 0.634839
383.900 0.713552
384.000 0.797399
384.100 0.886721
384.200 0.962012
384.300 1.041752
384.400 1.095483
384.500 1.148186
384.600 1.193018
384.700 1.229637
384.800 1.263860
384.900 1.282683
385.000 1.301848
385.100 1.327858
385.200 1.359001
385.300 1.385352
385.400 1.392539
385.500 1.387064
385.600 1.380903
385.700 1.378508
385.800 1.380903
385.900 1.390486
386.000 1.407940
386.100 1.424367
386.200 1.427789
386.300 1.417180
386.400 1.405886
386.500 1.399042
386.600 1.402464
386.700 1.406571
386.800 1.406913
386.900 1.400411
387.000 1.379877
387.100 1.356947
387.200 1.324093
387.300 1.309719
387.400 1.299110
387.500 1.288843
387.600 1.269678
387.700 1.222450
387.800 1.186174
387.900 1.151951
388.000 1.126283
388.100 1.097194
388.200 1.049966
388.300 0.998631
388.400 0.924709
388.500 0.847365
388.600 0.756674
388.700 0.648528
388.800 0.572211
388.900 0.532854
389.000 0.562286
389.100 0.640315
389.200 0.731691
389.300 0.806639
389.400 0.883299
389.500 0.941478
389.600 1.011978
389.700 1.067077
389.800 1.112936
389.900 1.150582
390.000 1.178645
390.100 1.218001
390.200 1.253251
390.300 1.286790
390.400 1.306982
390.500 1.321697
390.600 1.344627
390.700 1.372005
390.800 1.407598
390.900 1.438741
391.000 1.456537
391.100 1.460643
391.200 1.455168
391.300 1.442847
391.400 1.438741
391.500 1.448665
391.600 1.468172
391.700 1.476728
391.800 1.479466
391.900 1.476728
392.000 1.477413
392.100 1.479466
392.200 1.481177
392.300 1.485969
392.400 1.487337
392.500 1.485626
392.600 1.475017
392.700 1.457906
392.800 1.433607
392.900 1.403149
393.000 1.365503
393.100 1.277892
393.200 1.160849
393.300 1.049966
393.400 1.030801
393.500 1.123888
393.600 1.241273
393.700 1.349760
393.800 1.415127
393.900 1.443532
394.000 1.452772
394.100 1.458248
394.200 1.456537
394.300 1.455852
394.400 1.456537
394.500 1.447639
394.600 1.438056
394.700 1.426420
394.800 1.414100
394.900 1.404175
395.000 1.393224
395.100 1.382957
395.200 1.370637
395.300 1.361396
395.400 1.345654
395.500 1.316222
395.600 1.288501
395.700 1.261123
395.800 1.240246
395.900 1.210815
396.000 1.168378
396.100 1.120123
396.200 1.060575
396.300 1.009582
396.400 0.944216
396.500 0.861054
396.600 0.760438
396.700 0.625599
396.800 0.521218
396.900 0.444216
397.000 0.445243
397.100 0.503422
397.200 0.603012
397.300 0.698152
397.400 0.796030
397.500 0.866188
397.600 0.940110
397.700 1.002738
397.800 1.059890
397.900 1.118754
398.000 1.156057
398.100 1.194730
398.200 1.225530
398.300 1.256331
398.400 1.288501
398.500 1.312457
398.600 1.332991
398.700 1.349760
398.800 1.373374
398.900 1.391170
399.000 1.404517
399.100 1.418891
399.200 1.427105
399.300 1.441821
399.400 1.449350
399.500 1.453114
399.600 1.454825
399.700 1.452430
399.800 1.454825
399.900 1.466461
400.000 1.474675
400.100 1.479124
400.200 1.478782
400.300 1.473306
400.400 1.468172
400.500 1.464408
400.600 1.467830
400.700 1.477070
400.800 1.489733
400.900 1.497947
401.000 1.502396
401.100 1.502053
401.200 1.498631
401.300 1.497947
401.400 1.498289
401.500 1.504449
401.600 1.513005
401.700 1.523272
401.800 1.532512
401.900 1.536277
402.000 1.535934
402.100 1.533881
402.200 1.530116
402.300 1.523956
402.400 1.516085
402.500 1.512320
402.600 1.512663
402.700 1.519507
402.800 1.520876
402.900 1.519165
403.000 1.516427
403.100 1.514716
403.200 1.516769
403.300 1.518480
403.400 1.523272
403.500 1.533881
403.600 1.545517
403.700 1.556468
403.800 1.554757
403.900 1.545175
404.000 1.533881
404.100 1.528405
404.200 1.532854
404.300 1.529090
404.400 1.508556
404.500 1.489733
404.600 1.481177
404.700 1.498973
404.800 1.519507
404.900 1.529774
405.000 1.530459
405.100 1.531143
405.200 1.527721
405.300 1.517454
405.400 1.506845
405.500 1.502396
405.600 1.502053
405.700 1.507871
405.800 1.510609
405.900 1.517796
406.000 1.523956
406.100 1.518480
406.200 1.497947
406.300 1.475702
406.400 1.465777
406.500 1.457221
406.600 1.458932
406.700 1.458932
406.800 1.455852
406.900 1.453114
407.000 1.439425
407.100 1.413758
407.200 1.400068
407.300 1.401437
407.400 1.406571
407.500 1.405886
407.600 1.386379
407.700 1.367214
407.800 1.357290
407.900 1.364476
408.000 1.373717
408.100 1.367556
408.200 1.358316
408.300 1.342574
408.400 1.329911
408.500 1.313484
408.600 1.298084
408.700 1.283025
408.800 1.263176
408.900 1.244695
409.000 1.212868
409.100 1.184805
409.200 1.156742
409.300 1.116701
409.400 1.079398
409.500 1.024298
409.600 0.968857
409.700 0.905886
409.800 0.829569
409.900 0.748802
410.000 0.645106
410.100 0.579055
410.200 0.556468
410.300 0.607118
410.400 0.689254
410.500 0.780287
410.600 0.846338
410.700 0.915127
410.800 0.967830
410.900 1.017796
411.000 1.068446
411.100 1.104381
411.200 1.145106
411.300 1.177618
411.400 1.209788
411.500 1.238877
411.600 1.261465
411.700 1.278234
411.800 1.288843
411.900 1.301848
412.000 1.312115
412.100 1.325120
412.200 1.337440
412.300 1.350787
412.400 1.366530
412.500 1.375428
412.600 1.379192
412.700 1.381246
412.800 1.381930
412.900 1.382957
413.000 1.381246
413.100 1.379192
413.200 1.382615
413.300 1.391513
413.400 1.409993
413.500 1.424025
413.600 1.432923
413.700 1.442505
413.800 1.449692
413.900 1.457221
414.000 1.456879
414.100 1.447981
414.200 1.436003
414.300 1.424709
414.400 1.426420
414.500 1.432923
414.600 1.444901
414.700 1.447981
414.800 1.449350
414.900 1.451403
415.000 1.454141
415.100 1.458590
415.200 1.456879
415.300 1.449350
415.400 1.443532
415.500 1.443190
