# Wavelength (nm)   F_lamA (normalized erg/cm2/s/A)9.100 0.000022
9.400 0.000033
9.600 0.000043
9.800 0.000055
10.000 0.000070
10.200 0.000087
10.400 0.000108
10.600 0.000132
10.800 0.000161
11.000 0.000193
11.400 0.000274
11.800 0.000378
12.100 0.000473
12.500 0.000625
12.700 0.000713
12.800 0.000759
13.100 0.000913
13.200 0.000969
13.400 0.001087
13.700 0.001281
14.000 0.001497
14.300 0.001735
14.700 0.002087
15.100 0.002481
15.500 0.002916
15.900 0.003388
16.200 0.003772
16.600 0.004314
17.000 0.004892
17.300 0.005351
17.700 0.005988
18.000 0.006489
18.200 0.006832
18.600 0.007537
19.100 0.008455
19.400 0.009021
19.800 0.009793
20.200 0.010582
20.500 0.011184
21.000 0.012199
21.600 0.013432
22.000 0.014258
22.300 0.014880
22.700 0.015708
23.000 0.141152
23.400 0.139841
24.000 0.138272
24.600 0.137358
25.200 0.136385
25.700 0.131281
26.000 0.132949
26.400 0.133128
26.900 0.130963
27.400 0.128898
27.900 0.125442
28.400 0.124330
29.000 0.121351
29.600 0.117080
30.100 0.110030
30.800 0.108123
31.800 0.106832
32.800 0.102582
33.800 0.097895
34.800 0.093486
35.700 0.090487
36.600 0.087825
37.500 0.084350
38.500 0.079782
39.500 0.077378
40.500 0.074638
41.400 0.071857
42.200 0.069176
43.000 0.066753
44.100 0.064250
45.100 0.061688
46.000 0.059146
47.000 0.056763
48.000 0.054717
49.000 0.052254
50.000 0.050586
50.600 0.050427
51.200 0.052393
52.000 0.050626
53.000 0.048620
54.000 0.046038
55.000 0.044350
56.000 0.043913
57.000 0.042502
58.000 0.040794
59.000 0.039623
60.000 0.037974
61.000 0.036504
62.000 0.035968
63.000 0.034657
64.000 0.033744
65.000 0.032572
65.800 0.031519
66.500 0.031122
67.500 0.030308
68.500 0.028997
69.500 0.028481
70.500 0.027210
71.600 0.026832
72.600 0.026097
73.500 0.025462
74.500 0.024667
75.500 0.023932
76.500 0.023098
77.500 0.022622
78.500 0.021986
79.500 0.021450
80.500 0.020933
81.500 0.020417
82.500 0.019940
83.500 0.019015
84.500 0.018922
85.500 0.018419
86.500 0.018048
87.500 0.017625
88.500 0.017196
89.500 0.016785
90.500 0.016320
91.500 0.019194
92.500 0.027507
93.500 0.035134
94.500 0.045879
95.500 0.049712
96.500 0.055055
97.500 0.036028
98.500 0.054062
99.500 0.051321
100.500 0.053446
101.500 0.051122
102.500 0.035194
103.500 0.046872
104.500 0.052254
105.500 0.051122
106.500 0.048024
107.500 0.048818
108.500 0.045442
109.500 0.047726
110.500 0.045978
111.500 0.045263
112.500 0.043019
113.500 0.043972
114.500 0.042324
115.500 0.042026
116.500 0.041549
117.500 0.036981
118.500 0.039424
119.500 0.036882
120.500 0.033724
121.500 0.023555
122.500 0.033267
123.500 0.035452
124.500 0.035511
125.500 0.035134
126.500 0.034280
127.500 0.034499
128.500 0.034081
129.500 0.032473
130.500 0.032036
131.500 0.032512
132.500 0.031658
133.500 0.030606
134.500 0.030904
135.500 0.030427
136.500 0.029553
137.500 0.029116
138.500 0.028858
139.500 0.027130
140.500 0.026713
141.500 0.027468
142.500 0.026912
143.500 0.026653
144.200 0.026534
144.700 0.026316
145.500 0.025938
146.500 0.025422
147.500 0.025065
148.500 0.024767
149.500 0.024389
150.500 0.023972
151.200 0.023496
151.700 0.023476
152.500 0.023257
153.500 0.022542
154.500 0.022284
155.500 0.022344
156.500 0.022642
157.500 0.024171
158.500 0.026236
159.500 0.027269
160.500 0.025799
161.500 0.027905
162.500 0.028064
163.500 0.028381
164.500 0.033724
165.500 0.028302
166.500 0.038967
167.200 0.033227
167.700 0.046435
168.500 0.049573
169.500 0.047984
170.500 0.052155
171.500 0.058868
172.500 0.061291
173.500 0.067984
174.500 0.068222
175.500 0.075035
176.500 0.064151
177.500 0.073128
178.500 0.077776
179.500 0.086554
180.500 0.101192
181.500 0.104608
182.500 0.097617
183.500 0.102820
184.500 0.087368
185.500 0.097279
186.500 0.108282
187.500 0.107547
188.500 0.110209
189.500 0.117299
190.500 0.113426
191.500 0.122582
192.500 0.125263
193.500 0.109176
194.500 0.133366
195.500 0.136127
196.700 0.148044
197.600 0.144508
198.400 0.144131
199.500 0.143913
200.500 0.136226
201.500 0.143555
202.500 0.128342
203.500 0.150785
204.500 0.162761
205.500 0.161768
206.500 0.158868
207.400 0.178630
207.800 0.182304
208.500 0.181231
209.500 0.175988
210.500 0.170109
211.500 0.180417
212.500 0.178332
213.500 0.164131
214.500 0.184945
215.500 0.182781
216.500 0.172155
217.500 0.173486
218.500 0.187666
219.500 0.206157
220.500 0.198808
221.500 0.183932
222.500 0.193803
223.500 0.222046
224.500 0.206951
225.500 0.192075
226.500 0.185223
227.500 0.200993
228.500 0.214499
229.500 0.198610
230.500 0.216485
231.500 0.217875
232.500 0.194141
233.500 0.197200
234.500 0.165680
235.500 0.221450
236.500 0.178967
237.500 0.206554
238.500 0.156087
239.500 0.183039
240.500 0.180516
241.500 0.186931
242.500 0.234558
243.500 0.228997
244.500 0.246276
245.500 0.246276
246.500 0.248858
247.500 0.229196
248.500 0.209533
249.500 0.212711
250.500 0.261370
251.300 0.211519
251.800 0.181966
252.500 0.179265
253.500 0.200596
254.500 0.208739
255.500 0.243297
256.500 0.235750
257.500 0.263357
258.500 0.260576
259.500 0.253426
260.500 0.238530
261.500 0.222443
262.500 0.263754
263.500 0.291559
264.500 0.347766
265.500 0.369811
266.500 0.329692
267.500 0.353327
268.500 0.368222
269.500 0.326912
270.500 0.344786
271.500 0.307448
272.500 0.308640
273.500 0.334260
274.500 0.261569
275.500 0.294340
276.500 0.333863
277.500 0.355114
278.500 0.315988
279.500 0.157061
280.500 0.193644
281.500 0.371003
282.500 0.393644
283.500 0.385899
284.500 0.361668
285.500 0.291360
286.500 0.385700
287.500 0.396425
288.500 0.398411
289.500 0.404171
291.000 0.449454
293.000 0.438332
295.000 0.432175
297.000 0.440516
299.000 0.449057
301.000 0.456604
303.000 0.464151
305.000 0.478451
307.000 0.476465
309.000 0.477061
311.000 0.483416
313.000 0.481827
315.000 0.483416
317.000 0.500298
319.000 0.477458
321.000 0.502085
323.000 0.483416
325.000 0.527905
327.000 0.562264
329.000 0.564052
331.000 0.566236
332.200 0.585501
332.300 0.542800
332.400 0.526316
332.500 0.541609
332.600 0.533863
332.700 0.523337
332.800 0.532671
332.900 0.550546
333.000 0.585899
333.100 0.600794
333.200 0.584310
333.300 0.582721
333.400 0.570010
333.500 0.567627
333.600 0.555710
333.700 0.547368
333.800 0.561668
333.900 0.572195
334.000 0.579345
334.100 0.586097
334.200 0.575174
334.300 0.580933
334.400 0.593843
334.500 0.589871
334.600 0.589275
334.700 0.558689
334.800 0.528103
334.900 0.509633
335.000 0.532075
335.100 0.547766
335.200 0.540814
335.300 0.538232
335.400 0.559881
335.500 0.591658
335.600 0.590864
335.700 0.564647
335.800 0.509235
335.900 0.463754
336.000 0.433168
336.100 0.451639
336.200 0.482820
336.300 0.527507
336.400 0.558292
336.500 0.549156
336.600 0.541807
336.700 0.542205
336.800 0.533664
336.900 0.526117
337.000 0.483019
337.100 0.452234
337.200 0.456008
337.300 0.485402
337.400 0.520556
337.500 0.555313
337.600 0.566634
337.700 0.559285
337.800 0.540616
337.900 0.529096
338.000 0.538232
338.100 0.546971
338.200 0.551341
338.300 0.552731
338.400 0.556902
338.500 0.570209
338.600 0.558093
338.700 0.528898
338.800 0.506653
338.900 0.524926
339.000 0.553327
339.100 0.580139
339.200 0.569215
339.300 0.548163
339.400 0.550348
339.500 0.561470
339.600 0.583118
339.700 0.595432
339.800 0.609136
339.900 0.620258
340.000 0.619067
340.100 0.610328
340.200 0.575372
340.300 0.562860
340.400 0.550348
340.500 0.563257
340.600 0.571003
340.700 0.563654
340.800 0.546375
340.900 0.544786
341.000 0.567825
341.100 0.565243
341.200 0.554121
341.300 0.532870
341.400 0.529891
341.500 0.555909
341.600 0.581728
341.700 0.593644
341.800 0.598808
341.900 0.601390
342.000 0.608143
342.100 0.609335
342.200 0.585104
342.300 0.551738
342.400 0.542999
342.500 0.555114
342.600 0.568818
342.700 0.585303
342.800 0.610526
342.900 0.628997
343.000 0.643496
343.100 0.616882
343.200 0.586693
343.300 0.572989
343.400 0.594240
343.500 0.627408
343.600 0.630586
343.700 0.608342
343.800 0.585501
343.900 0.567031
344.000 0.550943
344.100 0.530089
344.200 0.517378
344.300 0.518173
344.400 0.529096
344.500 0.543992
344.600 0.573982
344.700 0.610526
344.800 0.634558
344.900 0.645283
345.000 0.623833
345.100 0.590268
345.200 0.566038
345.300 0.565839
345.400 0.577756
345.500 0.596226
345.600 0.601192
345.700 0.598411
345.800 0.593049
345.900 0.583515
346.000 0.565243
346.100 0.551738
346.200 0.566634
346.300 0.574777
346.400 0.584707
346.500 0.573188
346.600 0.574578
346.700 0.595829
346.800 0.620655
346.900 0.639126
347.000 0.643694
347.100 0.633565
347.200 0.622046
347.300 0.589474
347.400 0.562463
347.500 0.552929
347.600 0.556107
347.700 0.586097
347.800 0.612512
347.900 0.626812
348.000 0.640914
348.100 0.641708
348.200 0.632969
348.300 0.625819
348.400 0.620258
348.500 0.627607
348.600 0.641112
348.700 0.639921
348.800 0.628203
348.900 0.605362
349.000 0.585104
349.100 0.590665
349.200 0.611519
349.300 0.616683
349.400 0.611321
349.500 0.599603
349.600 0.588083
349.700 0.594638
349.800 0.591261
349.900 0.593644
350.000 0.593644
350.100 0.592651
350.200 0.605958
350.300 0.613903
350.400 0.617279
350.500 0.606554
350.600 0.592850
350.700 0.586097
350.800 0.580735
350.900 0.589871
351.000 0.593843
351.100 0.593843
351.200 0.584310
351.300 0.571599
351.400 0.572989
351.500 0.586296
351.600 0.620854
351.700 0.648064
351.800 0.651639
351.900 0.623237
352.000 0.598014
352.100 0.586495
352.200 0.578947
352.300 0.572592
352.400 0.555114
352.500 0.540616
352.600 0.551936
352.700 0.569811
352.800 0.593247
352.900 0.614300
353.000 0.628600
353.100 0.641708
353.200 0.633962
353.300 0.595631
353.400 0.571797
353.500 0.568421
353.600 0.601589
353.700 0.643694
353.800 0.660179
353.900 0.666336
354.000 0.659384
354.100 0.652234
354.200 0.651440
354.300 0.664350
354.400 0.673486
354.500 0.667726
354.600 0.659583
354.700 0.648858
354.800 0.643893
354.900 0.648659
355.000 0.662363
355.100 0.676465
355.200 0.670506
355.300 0.646673
355.400 0.628203
355.500 0.630189
355.600 0.643297
355.700 0.662959
355.800 0.676862
355.900 0.676862
356.000 0.674280
356.100 0.672890
356.200 0.666733
356.300 0.648659
356.400 0.623635
356.500 0.599801
356.600 0.589275
356.700 0.593247
356.800 0.595631
356.900 0.593049
357.000 0.577160
357.100 0.565045
357.200 0.565442
357.300 0.571202
357.400 0.579742
357.500 0.593843
357.600 0.605561
357.700 0.613903
357.800 0.622046
357.900 0.614101
358.000 0.595233
358.100 0.576763
358.200 0.565243
358.300 0.568024
358.400 0.563853
358.500 0.546375
358.600 0.521152
358.700 0.509831
358.800 0.525521
358.900 0.564449
359.000 0.600397
359.100 0.616683
359.200 0.613505
359.300 0.608342
359.400 0.615293
359.500 0.633962
359.600 0.650050
359.700 0.656604
359.800 0.656008
359.900 0.653426
360.000 0.650844
360.100 0.631182
360.200 0.615690
360.300 0.610328
360.400 0.622642
360.500 0.633168
360.600 0.626415
360.700 0.614896
360.800 0.602383
360.900 0.600199
361.000 0.601192
361.100 0.605362
361.200 0.617478
361.300 0.628798
361.400 0.642900
361.500 0.669116
361.600 0.666733
361.700 0.648461
361.800 0.624032
361.900 0.603376
362.000 0.614697
362.100 0.633962
362.200 0.647071
362.300 0.656405
362.400 0.665343
362.500 0.685601
362.600 0.713208
362.700 0.740218
362.800 0.730884
362.900 0.695333
363.000 0.641112
363.100 0.611519
363.200 0.621450
363.300 0.649652
363.400 0.664548
363.500 0.655015
363.600 0.651639
363.700 0.670506
363.800 0.691162
363.900 0.701490
364.000 0.703476
364.100 0.697120
364.200 0.682026
364.300 0.667925
364.400 0.656405
364.500 0.649057
364.600 0.643893
364.700 0.641509
364.800 0.640516
364.900 0.637736
365.000 0.638729
365.100 0.644687
365.200 0.662165
365.300 0.679643
365.400 0.697517
365.500 0.716783
365.600 0.729891
365.700 0.733664
365.800 0.728699
365.900 0.726117
366.000 0.725124
366.100 0.714995
366.200 0.701887
366.300 0.691559
366.400 0.694935
366.500 0.705462
366.600 0.710228
366.700 0.711023
366.800 0.700497
366.900 0.685005
367.000 0.679047
367.100 0.685998
367.200 0.699702
367.300 0.709831
367.400 0.708640
367.500 0.702284
367.600 0.686395
367.700 0.665144
367.800 0.648659
367.900 0.649851
368.000 0.658193
368.100 0.662562
368.200 0.666733
368.300 0.667726
368.400 0.669911
368.500 0.662959
368.600 0.656802
368.700 0.660179
368.800 0.675273
368.900 0.699503
369.000 0.709037
369.100 0.710626
369.200 0.708640
369.300 0.702681
369.400 0.700695
369.500 0.707051
369.600 0.706256
369.700 0.698908
369.800 0.708044
369.900 0.724528
370.000 0.747170
370.100 0.742403
370.200 0.705859
370.300 0.657398
370.400 0.623039
370.500 0.613307
370.600 0.621251
370.700 0.632969
370.800 0.649255
370.900 0.653625
371.000 0.639921
371.100 0.628600
371.200 0.632175
371.300 0.662761
371.400 0.701291
371.500 0.731877
371.600 0.745978
371.700 0.742403
371.800 0.713406
371.900 0.664350
372.000 0.588878
372.100 0.541807
372.200 0.551539
372.300 0.601589
372.400 0.667527
372.500 0.708838
372.600 0.718570
372.700 0.719563
372.800 0.721946
372.900 0.728302
373.000 0.727905
373.100 0.705859
373.200 0.634558
373.300 0.564250
373.400 0.514002
373.500 0.502880
373.600 0.535055
373.700 0.599206
373.800 0.655611
373.900 0.711619
374.000 0.744389
374.100 0.750546
374.200 0.728103
374.300 0.702681
374.400 0.678848
374.500 0.655214
374.600 0.642502
374.700 0.611519
374.800 0.576763
374.900 0.543595
375.000 0.534459
375.100 0.565641
375.200 0.623635
375.300 0.692155
375.400 0.742006
375.500 0.764052
375.600 0.760079
375.700 0.732274
375.800 0.703476
375.900 0.692155
376.000 0.696127
376.100 0.718173
376.200 0.731877
376.300 0.734459
376.400 0.727507
376.500 0.717776
376.600 0.703476
376.700 0.680437
376.800 0.639523
376.900 0.594439
377.000 0.565839
377.100 0.581728
377.200 0.627210
377.300 0.686197
377.400 0.726117
377.500 0.738034
377.600 0.742602
377.700 0.752731
377.800 0.778550
377.900 0.805362
378.000 0.827210
378.100 0.833168
378.200 0.826812
378.300 0.816683
378.400 0.809533
378.500 0.795829
378.600 0.783317
378.700 0.765641
378.800 0.751539
378.900 0.751142
379.000 0.755313
379.100 0.755313
379.200 0.749950
379.300 0.724727
379.400 0.691360
379.500 0.646673
379.600 0.599007
379.700 0.555313
379.800 0.537835
379.900 0.562463
380.000 0.641907
380.100 0.711221
380.200 0.763257
380.300 0.782324
380.400 0.786693
380.500 0.785899
380.600 0.783317
380.700 0.789871
380.800 0.804369
380.900 0.822840
381.000 0.837934
381.100 0.835750
381.200 0.805760
381.300 0.775372
381.400 0.750745
381.500 0.747368
381.600 0.765641
381.700 0.788679
381.800 0.794638
381.900 0.770407
382.000 0.747368
382.100 0.740020
382.200 0.755511
382.300 0.762860
382.400 0.737835
382.500 0.713009
382.600 0.698908
382.700 0.684806
382.800 0.675472
382.900 0.665938
383.000 0.655015
383.100 0.635154
383.200 0.599007
383.300 0.545978
383.400 0.496524
383.500 0.480040
383.600 0.494538
383.700 0.528103
383.800 0.566038
383.900 0.604171
384.000 0.634955
384.100 0.676862
384.200 0.718769
384.300 0.761271
384.400 0.792056
384.500 0.801787
384.600 0.813903
384.700 0.825422
384.800 0.829593
384.900 0.820457
385.000 0.807746
385.100 0.817875
385.200 0.838729
385.300 0.858987
385.400 0.856802
385.500 0.839921
385.600 0.819861
385.700 0.804965
385.800 0.785501
385.900 0.778153
386.000 0.785303
386.100 0.806951
386.200 0.832572
386.300 0.848064
386.400 0.846673
386.500 0.840318
386.600 0.841112
386.700 0.846872
386.800 0.853823
386.900 0.852234
387.000 0.836544
387.100 0.817279
387.200 0.793049
387.300 0.782721
387.400 0.787488
387.500 0.799801
387.600 0.798610
387.700 0.776961
387.800 0.755114
387.900 0.748163
388.000 0.760874
388.100 0.769613
388.200 0.758689
388.300 0.745382
388.400 0.729891
388.500 0.690566
388.600 0.639325
388.700 0.575968
388.800 0.533267
388.900 0.532671
389.000 0.575770
389.100 0.637736
389.200 0.694935
389.300 0.719960
389.400 0.726713
389.500 0.739821
389.600 0.754518
389.700 0.774379
389.800 0.788878
389.900 0.789275
390.000 0.794042
390.100 0.803178
390.200 0.801192
390.300 0.796226
390.400 0.782324
390.500 0.777954
390.600 0.784906
390.700 0.810526
390.800 0.839126
390.900 0.864548
391.000 0.876266
391.100 0.878649
391.200 0.880636
391.300 0.878848
391.400 0.862761
391.500 0.851241
391.600 0.850050
391.700 0.846077
391.800 0.836743
391.900 0.824230
392.000 0.816882
392.100 0.810328
392.200 0.809136
392.300 0.817080
392.400 0.818669
392.500 0.815293
392.600 0.788481
392.700 0.752334
392.800 0.701688
392.900 0.635551
393.000 0.561072
393.100 0.442900
393.200 0.332075
393.300 0.258788
393.400 0.257200
393.500 0.327706
393.600 0.453029
393.700 0.555511
393.800 0.659384
393.900 0.726514
394.000 0.765839
394.100 0.790467
394.200 0.798610
394.300 0.794240
394.400 0.796028
394.500 0.809930
394.600 0.830189
394.700 0.841907
394.800 0.838928
394.900 0.832572
395.000 0.829593
395.100 0.826812
395.200 0.826216
395.300 0.839523
395.400 0.847071
395.500 0.840914
395.600 0.829394
395.700 0.817478
395.800 0.819662
395.900 0.824628
396.000 0.798014
396.100 0.766634
396.200 0.729494
396.300 0.691360
396.400 0.660179
396.500 0.577160
396.600 0.479444
396.700 0.360079
396.800 0.281231
396.900 0.268123
397.000 0.335452
397.100 0.432572
397.200 0.545978
397.300 0.624230
397.400 0.685005
397.500 0.732075
397.600 0.763853
397.700 0.797021
397.800 0.822046
397.900 0.844290
398.000 0.851043
398.100 0.846276
398.200 0.850248
398.300 0.856604
398.400 0.870308
398.500 0.884806
398.600 0.896524
398.700 0.910228
398.800 0.919364
398.900 0.917974
399.000 0.915988
399.100 0.920755
399.200 0.930487
399.300 0.939623
399.400 0.940218
399.500 0.931082
399.600 0.908838
399.700 0.894935
399.800 0.893942
399.900 0.912016
400.000 0.928500
400.100 0.941212
400.200 0.946177
400.300 0.942800
400.400 0.924926
400.500 0.904071
400.600 0.905859
400.700 0.921946
400.800 0.944588
400.900 0.958093
401.000 0.962463
401.100 0.964846
401.200 0.965045
401.300 0.961470
401.400 0.961668
401.500 0.969215
401.600 0.974379
401.700 0.973784
401.800 0.977954
401.900 0.981529
402.000 0.985700
402.100 0.982522
402.200 0.976763
402.300 0.972790
402.400 0.969215
402.500 0.971599
402.600 0.980338
402.700 0.997418
402.800 0.998411
402.900 0.987090
403.000 0.959086
403.100 0.936842
403.200 0.927507
403.300 0.930089
403.400 0.940417
403.500 0.962661
403.600 0.986892
403.700 1.010924
403.800 1.017080
403.900 1.011718
404.000 1.000794
404.100 0.992056
404.200 0.990665
404.300 0.974777
404.400 0.943595
404.500 0.914796
404.600 0.907646
404.700 0.936246
404.800 0.972195
404.900 0.996624
405.000 0.999603
405.100 1.001589
405.200 0.995631
405.300 0.986296
405.400 0.980735
405.500 0.975372
405.600 0.974181
405.700 0.973784
405.800 0.976961
405.900 0.993247
406.000 1.001986
406.100 0.995035
406.200 0.958093
406.300 0.927905
406.400 0.918570
406.500 0.925124
406.600 0.937835
406.700 0.946773
406.800 0.949156
406.900 0.949355
407.000 0.942403
407.100 0.921152
407.200 0.913605
407.300 0.922939
407.400 0.932075
407.500 0.929494
407.600 0.907051
407.700 0.886792
407.800 0.876663
407.900 0.895730
408.000 0.924131
408.100 0.947964
408.200 0.954717
408.300 0.944588
408.400 0.931281
408.500 0.924330
408.600 0.933069
408.700 0.947368
408.800 0.960278
408.900 0.960675
409.000 0.954121
409.100 0.947567
409.200 0.945780
409.300 0.934856
409.400 0.920755
409.500 0.898113
409.600 0.872890
409.700 0.851241
409.800 0.817478
409.900 0.771202
410.000 0.697517
410.100 0.641509
410.200 0.628004
410.300 0.690566
410.400 0.764647
410.500 0.829394
410.600 0.863952
410.700 0.880636
410.800 0.893347
410.900 0.898510
411.000 0.908242
411.100 0.917776
411.200 0.928302
411.300 0.939821
411.400 0.949950
411.500 0.963654
411.600 0.965442
411.700 0.956504
411.800 0.944191
411.900 0.931082
412.000 0.932870
412.100 0.941410
412.200 0.951341
412.300 0.956504
412.400 0.959086
412.500 0.965442
412.600 0.967825
412.700 0.965641
412.800 0.964250
412.900 0.967627
413.000 0.962860
413.100 0.948957
413.200 0.932671
413.300 0.931082
413.400 0.945382
413.500 0.962860
413.600 0.976564
413.700 0.990467
413.800 1.002781
413.900 1.013108
414.000 1.007150
414.100 0.987686
414.200 0.962066
414.300 0.941212
414.400 0.942999
414.500 0.958491
414.600 0.978550
414.700 0.981927
414.800 0.979345
414.900 0.982522
415.000 0.985104
415.100 0.987289
415.200 0.981728
415.300 0.974181
415.400 0.967229
415.500 0.964250
