# Wavelength (nm)   F_lamA (normalized erg/cm2/s/A)9.100 0.005666
9.400 0.006283
9.600 0.006693
9.800 0.007100
10.000 0.007503
10.200 0.007901
10.400 0.008292
10.600 0.008675
10.800 0.009050
11.000 0.009411
11.400 0.010106
11.800 0.010756
12.100 0.011214
12.500 0.011777
12.700 0.012040
12.800 0.012164
13.100 0.012524
13.200 0.012630
13.400 0.012850
13.700 0.013149
14.000 0.013421
14.300 0.013668
14.700 0.013958
15.100 0.014204
15.500 0.014406
15.900 0.014573
16.200 0.014679
16.600 0.014785
17.000 0.014855
17.300 0.014890
17.700 0.014916
18.000 0.014925
18.200 0.014916
18.600 0.014890
19.100 0.014828
19.400 0.014785
19.800 0.014705
20.200 0.014609
20.500 0.014529
21.000 0.014389
21.600 0.014195
22.000 0.014063
22.300 0.013949
22.700 0.013799
23.000 0.035541
23.400 0.034424
24.000 0.032876
24.600 0.031478
25.200 0.030141
25.700 0.028795
26.000 0.028355
26.400 0.027687
26.900 0.026693
27.400 0.025717
27.900 0.024697
28.400 0.023914
29.000 0.022885
29.600 0.021785
30.100 0.020633
30.800 0.019736
31.800 0.018628
32.800 0.017388
33.800 0.016218
34.800 0.015145
35.700 0.014301
36.600 0.013544
37.500 0.012770
38.500 0.011926
39.500 0.011275
40.500 0.010633
41.400 0.010079
42.200 0.009595
43.000 0.009147
44.100 0.008624
45.100 0.008157
46.000 0.007742
47.000 0.007334
48.000 0.006967
49.000 0.006590
50.000 0.006283
50.600 0.006228
51.200 0.006363
52.000 0.006106
53.000 0.005816
54.000 0.005484
55.000 0.005245
56.000 0.005108
57.000 0.004901
58.000 0.004673
59.000 0.004505
60.000 0.004304
61.000 0.004126
62.000 0.004027
63.000 0.003878
64.000 0.003760
65.000 0.003630
65.800 0.003523
66.500 0.003474
67.500 0.003393
68.500 0.003280
69.500 0.003237
70.500 0.003143
71.600 0.003128
72.600 0.003096
73.500 0.003076
74.500 0.003056
75.500 0.003055
76.500 0.003054
77.500 0.003093
78.500 0.003135
79.500 0.003193
80.500 0.003270
81.500 0.003361
82.500 0.003472
83.500 0.003544
84.500 0.003734
85.500 0.003886
86.500 0.004083
87.500 0.004287
88.500 0.004517
89.500 0.004763
90.500 0.004985
91.500 0.008927
92.500 0.025761
93.500 0.068716
94.500 0.446086
95.500 1.622691
96.500 2.357960
97.500 0.569041
98.500 5.084433
99.500 6.299912
100.500 6.594547
101.500 3.857520
102.500 0.263500
103.500 2.881266
104.500 6.868953
105.500 7.678980
106.500 7.248901
107.500 7.883905
108.500 7.340369
109.500 7.795954
110.500 7.453826
111.500 7.385224
112.500 7.056288
113.500 7.255937
114.500 6.860158
115.500 6.892700
116.500 6.924362
117.500 6.240985
118.500 6.204046
119.500 4.622691
120.500 2.661390
121.500 0.267634
122.500 2.234828
123.500 4.795954
124.500 5.652595
125.500 5.849604
126.500 5.489006
127.500 6.065084
128.500 6.196130
129.500 5.883905
130.500 5.693052
131.500 6.067722
132.500 5.919965
133.500 5.708004
134.500 5.923483
135.500 5.791557
136.500 5.628848
137.500 5.609499
138.500 5.632366
139.500 5.518909
140.500 5.519789
141.500 5.395778
142.500 5.367634
143.500 5.269129
144.200 5.298153
144.700 5.284960
145.500 5.212841
146.500 5.101143
147.500 5.044855
148.500 4.972735
149.500 4.912929
150.500 4.857520
151.200 4.765172
151.700 4.799472
152.500 4.680739
153.500 4.542656
154.500 4.636763
155.500 4.473175
156.500 4.335972
157.500 4.372032
158.500 4.378188
159.500 4.404573
160.500 4.248901
161.500 4.211082
162.500 4.083553
163.500 4.067722
164.500 4.038698
165.500 3.860158
166.500 4.014072
167.200 3.813544
167.700 3.886544
168.500 3.917326
169.500 3.826737
170.500 3.739666
171.500 3.694811
172.500 3.634125
173.500 3.679859
174.500 3.590150
175.500 3.623571
176.500 3.423923
177.500 3.532102
178.500 3.472296
179.500 3.488127
180.500 3.445031
181.500 3.388742
182.500 3.358839
183.500 3.306948
184.500 3.222515
185.500 3.164468
186.500 3.138962
187.500 3.171504
188.500 3.096746
189.500 3.040457
190.500 3.065084
191.500 2.991205
192.500 2.965699
193.500 2.941953
194.500 2.964820
195.500 2.891821
196.700 2.906772
197.600 2.884785
198.400 2.840809
199.500 2.771328
200.500 2.770449
201.500 2.727353
202.500 2.724714
203.500 2.697449
204.500 2.678980
205.500 2.598945
206.500 2.593668
207.400 2.608619
207.800 2.581354
208.500 2.585752
209.500 2.536500
210.500 2.530343
211.500 2.510114
212.500 2.496042
213.500 2.441513
214.500 2.442392
215.500 2.420405
216.500 2.363237
217.500 2.343008
218.500 2.330695
219.500 2.344767
220.500 2.289358
221.500 2.246262
222.500 2.206684
223.500 2.248901
224.500 2.201407
225.500 2.161829
226.500 2.145998
227.500 2.149516
228.500 2.145998
229.500 2.096746
230.500 2.088830
231.500 2.061566
232.500 1.887423
233.500 2.009675
234.500 1.933157
235.500 1.976253
236.500 1.910290
237.500 1.928760
238.500 1.857520
239.500 1.891821
240.500 1.860158
241.500 1.852243
242.500 1.868074
243.500 1.825858
244.500 1.832894
245.500 1.822339
246.500 1.788039
247.500 1.769569
248.500 1.779244
249.500 1.741425
250.500 1.771328
251.300 1.729112
251.800 1.732630
252.500 1.690413
253.500 1.664908
254.500 1.662269
255.500 1.686016
256.500 1.664028
257.500 1.676341
258.500 1.667546
259.500 1.649956
260.500 1.620932
261.500 1.605101
262.500 1.602463
263.500 1.598945
264.500 1.639402
265.500 1.627968
266.500 1.592788
267.500 1.598945
268.500 1.591909
269.500 1.564644
270.500 1.558487
271.500 1.531223
272.500 1.516271
273.500 1.525066
274.500 1.459982
275.500 1.458223
276.500 1.474055
277.500 1.487247
278.500 1.467898
279.500 1.371152
280.500 1.402814
281.500 1.456464
282.500 1.445910
283.500 1.427441
284.500 1.410730
285.500 1.394019
286.500 1.405453
287.500 1.393140
288.500 1.389622
289.500 1.381706
291.000 1.384345
293.000 1.356201
295.000 1.335972
297.000 1.326297
299.000 1.311346
301.000 1.303430
303.000 1.289358
305.000 1.276165
307.000 1.259455
309.000 1.248021
311.000 1.233069
313.000 1.218118
315.000 1.205805
317.000 1.195251
319.000 1.171504
321.000 1.169745
323.000 1.153034
325.000 1.148637
327.000 1.143360
329.000 1.131926
331.000 1.122252
332.200 1.069481
332.300 1.077397
332.400 1.079156
332.500 1.072999
332.600 1.059807
332.700 1.039578
332.800 1.043096
332.900 1.051011
333.000 1.060686
333.100 1.067722
333.200 1.066843
333.300 1.067722
333.400 1.059807
333.500 1.053650
333.600 1.036060
333.700 1.024626
333.800 1.038698
333.900 1.045734
334.000 1.041337
334.100 1.030783
334.200 1.024626
334.300 1.038698
334.400 1.058927
334.500 1.064204
334.600 1.063325
334.700 1.059807
334.800 1.046614
334.900 1.026385
335.000 1.011434
335.100 1.002639
335.200 1.018470
335.300 1.028144
335.400 1.031662
335.500 1.021988
335.600 1.016711
335.700 1.022867
335.800 1.016711
335.900 1.001759
336.000 0.985048
336.100 0.976253
336.200 0.992084
336.300 1.008795
336.400 1.015831
336.500 1.012313
336.600 0.999120
336.700 0.990325
336.800 0.984169
336.900 0.985928
337.000 0.989446
337.100 0.993843
337.200 0.985048
337.300 0.984169
337.400 0.992964
337.500 1.008795
337.600 1.023747
337.700 1.018470
337.800 1.003518
337.900 0.994723
338.000 0.992964
338.100 1.002639
338.200 1.017590
338.300 1.037819
338.400 1.039578
338.500 1.038698
338.600 1.029903
338.700 1.021108
338.800 1.020229
338.900 1.026385
339.000 1.031662
339.100 1.040457
339.200 1.037819
339.300 1.030783
339.400 1.030783
339.500 1.036939
339.600 1.051891
339.700 1.061566
339.800 1.061566
339.900 1.040457
340.000 1.007036
340.100 0.997361
340.200 0.990325
340.300 0.999120
340.400 1.002639
340.500 1.007916
340.600 0.998241
340.700 0.990325
340.800 0.998241
340.900 0.999120
341.000 1.003518
341.100 1.005277
341.200 1.010554
341.300 1.024626
341.400 1.030783
341.500 1.020229
341.600 1.014072
341.700 1.015831
341.800 1.025506
341.900 1.033421
342.000 1.034301
342.100 1.030783
342.200 1.022867
342.300 1.021988
342.400 1.021988
342.500 1.019349
342.600 1.017590
342.700 1.020229
342.800 1.027265
342.900 1.038698
343.000 1.034301
343.100 1.022867
343.200 1.014072
343.300 1.011434
343.400 1.019349
343.500 1.025506
343.600 1.030783
343.700 1.032542
343.800 1.027265
343.900 1.017590
344.000 1.007036
344.100 0.991205
344.200 0.987687
344.300 0.981530
344.400 0.978892
344.500 0.990325
344.600 1.007916
344.700 1.024626
344.800 1.042216
344.900 1.051891
345.000 1.033421
345.100 0.998241
345.200 0.982410
345.300 0.971856
345.400 0.978012
345.500 0.977133
345.600 0.978012
345.700 0.980651
345.800 0.972735
345.900 0.969217
346.000 0.966579
346.100 0.964820
346.200 0.970097
346.300 0.983289
346.400 0.984169
346.500 0.978012
346.600 0.973615
346.700 0.972735
346.800 0.975374
346.900 0.984169
347.000 0.995602
347.100 1.000880
347.200 0.992084
347.300 0.969217
347.400 0.960422
347.500 0.957784
347.600 0.965699
347.700 0.979771
347.800 0.984169
347.900 0.985048
348.000 0.986807
348.100 0.986807
348.200 0.983289
348.300 0.978892
348.400 0.980651
348.500 0.993843
348.600 1.003518
348.700 1.006157
348.800 0.997361
348.900 0.985928
349.000 0.976253
349.100 0.974494
349.200 0.981530
349.300 0.985048
349.400 0.979771
349.500 0.963940
349.600 0.956025
349.700 0.963940
349.800 0.975374
349.900 0.984169
350.000 0.970097
350.100 0.963061
350.200 0.970097
350.300 0.969217
350.400 0.964820
350.500 0.957784
350.600 0.954266
350.700 0.953386
350.800 0.953386
350.900 0.959543
351.000 0.965699
351.100 0.966579
351.200 0.962181
351.300 0.950748
351.400 0.939314
351.500 0.943712
351.600 0.954266
351.700 0.967458
351.800 0.976253
351.900 0.974494
352.000 0.971856
352.100 0.970097
352.200 0.967458
352.300 0.966579
352.400 0.963061
352.500 0.963061
352.600 0.969217
352.700 0.970097
352.800 0.970976
352.900 0.973615
353.000 0.978012
353.100 0.982410
353.200 0.987687
353.300 0.986807
353.400 0.976253
353.500 0.970097
353.600 0.967458
353.700 0.970976
353.800 0.977133
353.900 0.982410
354.000 0.985048
354.100 0.983289
354.200 0.979771
354.300 0.982410
354.400 0.984169
354.500 0.983289
354.600 0.987687
354.700 0.990325
354.800 0.993843
354.900 0.992084
355.000 0.987687
355.100 0.987687
355.200 0.986807
355.300 0.983289
355.400 0.973615
355.500 0.970097
355.600 0.978012
355.700 0.990325
355.800 0.992964
355.900 0.986807
356.000 0.977133
356.100 0.979771
356.200 0.985928
356.300 0.986807
356.400 0.979771
356.500 0.963061
356.600 0.957784
356.700 0.963061
356.800 0.968338
356.900 0.967458
357.000 0.958663
357.100 0.942832
357.200 0.925242
357.300 0.923483
357.400 0.923483
357.500 0.923483
357.600 0.925242
357.700 0.927001
357.800 0.927001
357.900 0.923483
358.000 0.921724
358.100 0.918206
358.200 0.915567
358.300 0.917326
358.400 0.915567
358.500 0.910290
358.600 0.901495
358.700 0.897098
358.800 0.896218
358.900 0.903254
359.000 0.911170
359.100 0.916447
359.200 0.917326
359.300 0.918206
359.400 0.918206
359.500 0.920844
359.600 0.926121
359.700 0.928760
359.800 0.932278
359.900 0.933157
360.000 0.931398
360.100 0.924362
360.200 0.923483
360.300 0.921724
360.400 0.919965
360.500 0.923483
360.600 0.927880
360.700 0.929639
360.800 0.928760
360.900 0.930519
361.000 0.931398
361.100 0.934037
361.200 0.933157
361.300 0.929639
361.400 0.933157
361.500 0.939314
361.600 0.942832
361.700 0.948109
361.800 0.946350
361.900 0.943712
362.000 0.944591
362.100 0.945471
362.200 0.953386
362.300 0.962181
362.400 0.960422
362.500 0.963061
362.600 0.967458
362.700 0.973615
362.800 0.978012
362.900 0.970976
363.000 0.956025
363.100 0.947230
363.200 0.945471
363.300 0.956025
363.400 0.965699
363.500 0.970097
363.600 0.956904
363.700 0.945471
363.800 0.948989
363.900 0.955145
364.000 0.954266
364.100 0.949868
364.200 0.941953
364.300 0.935796
364.400 0.935796
364.500 0.941073
364.600 0.940193
364.700 0.938434
364.800 0.938434
364.900 0.940193
365.000 0.944591
365.100 0.946350
365.200 0.950748
365.300 0.956904
365.400 0.958663
365.500 0.953386
365.600 0.949868
365.700 0.950748
365.800 0.956904
365.900 0.957784
366.000 0.948989
366.100 0.939314
366.200 0.932278
366.300 0.934916
366.400 0.941073
366.500 0.942832
366.600 0.940193
366.700 0.933157
366.800 0.929639
366.900 0.931398
367.000 0.934916
367.100 0.939314
367.200 0.943712
367.300 0.945471
367.400 0.941073
367.500 0.930519
367.600 0.915567
367.700 0.912049
367.800 0.912929
367.900 0.919085
368.000 0.925242
368.100 0.932278
368.200 0.927880
368.300 0.923483
368.400 0.926121
368.500 0.922603
368.600 0.911170
368.700 0.912929
368.800 0.930519
368.900 0.953386
369.000 0.959543
369.100 0.938434
369.200 0.937555
369.300 0.954266
369.400 0.978012
369.500 0.982410
369.600 0.947230
369.700 0.931398
369.800 0.941953
369.900 0.986807
370.000 1.035180
370.100 1.041337
370.200 1.005277
370.300 0.924362
370.400 0.888303
370.500 0.885664
370.600 0.944591
370.700 1.007036
370.800 1.059807
370.900 1.037819
371.000 0.970097
371.100 0.906772
371.200 0.870361
371.300 0.897098
371.400 0.963061
371.500 1.073879
371.600 1.141601
371.700 1.188215
371.800 1.176781
371.900 1.108179
372.000 0.978012
372.100 0.901495
372.200 0.849164
372.300 0.883905
372.400 0.977133
372.500 1.106420
372.600 1.186456
372.700 1.262973
372.800 1.290237
372.900 1.293755
373.000 1.262973
373.100 1.182938
373.200 1.040457
373.300 0.936675
373.400 0.839578
373.500 0.824714
373.600 0.880387
373.700 1.008795
373.800 1.123131
373.900 1.271768
374.000 1.350044
374.100 1.406332
374.200 1.426561
374.300 1.420405
374.400 1.386983
374.500 1.332454
374.600 1.235708
374.700 1.119613
374.800 1.001759
374.900 0.862181
375.000 0.815919
375.100 0.832806
375.200 0.927880
375.300 1.058047
375.400 1.205805
375.500 1.296394
375.600 1.391381
375.700 1.427441
375.800 1.451187
375.900 1.452946
376.000 1.446790
376.100 1.444151
376.200 1.452067
376.300 1.441513
376.400 1.417766
376.500 1.359719
376.600 1.272647
376.700 1.187335
376.800 1.055409
376.900 0.928760
377.000 0.833333
377.100 0.791996
377.200 0.853738
377.300 0.987687
377.400 1.102902
377.500 1.230431
377.600 1.331574
377.700 1.413369
377.800 1.499560
377.900 1.551451
378.000 1.605101
378.100 1.627968
378.200 1.643799
378.300 1.651715
378.400 1.658751
378.500 1.657872
378.600 1.644679
378.700 1.621812
378.800 1.602463
378.900 1.576957
379.000 1.537379
379.100 1.494283
379.200 1.418646
379.300 1.332454
379.400 1.227792
379.500 1.080915
379.600 0.963940
379.700 0.839578
379.800 0.782586
379.900 0.809675
380.000 0.928760
380.100 1.051011
380.200 1.210202
380.300 1.312225
380.400 1.412489
380.500 1.481970
380.600 1.525945
380.700 1.577836
380.800 1.614776
380.900 1.658751
381.000 1.690413
381.100 1.708004
381.200 1.702726
381.300 1.688654
381.400 1.674582
381.500 1.681618
381.600 1.683377
381.700 1.678100
381.800 1.664908
381.900 1.636763
382.000 1.615655
382.100 1.610378
382.200 1.623571
382.300 1.623571
382.400 1.600704
382.500 1.568162
382.600 1.525066
382.700 1.492524
382.800 1.442392
382.900 1.377309
383.000 1.312225
383.100 1.208443
383.200 1.111697
383.300 0.984169
383.400 0.836763
383.500 0.778980
383.600 0.767282
383.700 0.833949
383.800 0.948109
383.900 1.072120
384.000 1.176781
384.100 1.305189
384.200 1.384345
384.300 1.473175
384.400 1.524186
384.500 1.573439
384.600 1.618294
384.700 1.644679
384.800 1.669305
384.900 1.678100
385.000 1.688654
385.100 1.706245
385.200 1.713281
385.300 1.717678
385.400 1.715919
385.500 1.711522
385.600 1.709763
385.700 1.717678
385.800 1.735268
385.900 1.747581
386.000 1.754617
386.100 1.751099
386.200 1.734389
386.300 1.700967
386.400 1.700967
386.500 1.706245
386.600 1.713281
386.700 1.721196
386.800 1.726473
386.900 1.727353
387.000 1.715919
387.100 1.696570
387.200 1.672823
387.300 1.661390
387.400 1.660510
387.500 1.664908
387.600 1.650836
387.700 1.620053
387.800 1.594547
387.900 1.563764
388.000 1.535620
388.100 1.498681
388.200 1.434477
388.300 1.374670
388.400 1.286719
388.500 1.186456
388.600 1.074758
388.700 0.923483
388.800 0.827441
388.900 0.768426
389.000 0.797098
389.100 0.890062
389.200 1.036060
389.300 1.142480
389.400 1.258575
389.500 1.335092
389.600 1.409850
389.700 1.474055
389.800 1.508355
389.900 1.543536
390.000 1.569921
390.100 1.603342
390.200 1.639402
390.300 1.660510
390.400 1.671944
390.500 1.678100
390.600 1.684257
390.700 1.701847
390.800 1.731750
390.900 1.763412
391.000 1.778364
391.100 1.781003
391.200 1.768690
391.300 1.751979
391.400 1.737907
391.500 1.737907
391.600 1.751979
391.700 1.760774
391.800 1.766931
391.900 1.764292
392.000 1.766931
392.100 1.771328
392.200 1.768690
392.300 1.766931
392.400 1.764292
392.500 1.762533
392.600 1.754617
392.700 1.744063
392.800 1.724714
392.900 1.706245
393.000 1.686016
393.100 1.642920
393.200 1.569921
393.300 1.477573
393.400 1.448549
393.500 1.481091
393.600 1.576957
393.700 1.646438
393.800 1.694811
393.900 1.721196
394.000 1.741425
394.100 1.754617
394.200 1.756376
394.300 1.750220
394.400 1.742304
394.500 1.726473
394.600 1.719437
394.700 1.717678
394.800 1.715040
394.900 1.708004
395.000 1.698329
395.100 1.688654
395.200 1.678980
395.300 1.677221
395.400 1.671944
395.500 1.658751
395.600 1.640281
395.700 1.614776
395.800 1.598065
395.900 1.571680
396.000 1.530343
396.100 1.485488
396.200 1.423043
396.300 1.376429
396.400 1.300792
396.500 1.207564
396.600 1.096746
396.700 0.939314
396.800 0.818909
396.900 0.711258
397.000 0.675726
397.100 0.721284
397.200 0.837203
397.300 0.950748
397.400 1.093228
397.500 1.196130
397.600 1.292876
397.700 1.373791
397.800 1.422164
397.900 1.476693
398.000 1.509235
398.100 1.541777
398.200 1.567282
398.300 1.590150
398.400 1.619173
398.500 1.642040
398.600 1.658751
398.700 1.665787
398.800 1.671944
398.900 1.678980
399.000 1.691293
399.100 1.701847
399.200 1.707124
399.300 1.715040
399.400 1.719437
399.500 1.722076
399.600 1.721196
399.700 1.721196
399.800 1.721196
399.900 1.722076
400.000 1.717678
400.100 1.708004
400.200 1.705365
400.300 1.699208
400.400 1.697449
400.500 1.696570
400.600 1.699208
400.700 1.700088
400.800 1.705365
400.900 1.707124
401.000 1.708004
401.100 1.708004
401.200 1.711522
401.300 1.715919
401.400 1.716799
401.500 1.722955
401.600 1.732630
401.700 1.741425
401.800 1.750220
401.900 1.751979
402.000 1.754617
402.100 1.749340
402.200 1.735268
402.300 1.713281
402.400 1.690413
402.500 1.670185
402.600 1.669305
402.700 1.678980
402.800 1.691293
402.900 1.705365
403.000 1.719437
403.100 1.727353
403.200 1.735268
403.300 1.739666
403.400 1.744063
403.500 1.751979
403.600 1.753738
403.700 1.758135
403.800 1.762533
403.900 1.761653
404.000 1.759894
404.100 1.753738
404.200 1.748461
404.300 1.744063
404.400 1.729991
404.500 1.715919
404.600 1.709763
404.700 1.717678
404.800 1.730871
404.900 1.740545
405.000 1.743184
405.100 1.741425
405.200 1.733509
405.300 1.723835
405.400 1.717678
405.500 1.722955
405.600 1.730871
405.700 1.733509
405.800 1.730871
405.900 1.730871
406.000 1.729112
406.100 1.720317
406.200 1.709763
406.300 1.701847
406.400 1.693052
406.500 1.669305
406.600 1.656113
406.700 1.653474
406.800 1.652595
406.900 1.654354
407.000 1.649077
407.100 1.634125
407.200 1.625330
407.300 1.623571
407.400 1.626209
407.500 1.624450
407.600 1.609499
407.700 1.598945
407.800 1.590150
407.900 1.594547
408.000 1.605981
408.100 1.611258
408.200 1.607740
408.300 1.597186
408.400 1.586631
408.500 1.571680
408.600 1.554090
408.700 1.540897
408.800 1.527704
408.900 1.521548
409.000 1.503958
409.100 1.485488
409.200 1.459103
409.300 1.413369
409.400 1.372032
409.500 1.311346
409.600 1.247142
409.700 1.169745
409.800 1.072120
409.900 0.975374
410.000 0.855145
410.100 0.766227
410.200 0.738962
410.300 0.787599
410.400 0.881266
410.500 1.010554
410.600 1.102023
410.700 1.191733
410.800 1.259455
410.900 1.309587
411.000 1.360598
411.100 1.396658
411.200 1.434477
411.300 1.459103
411.400 1.481091
411.500 1.502199
411.600 1.519789
411.700 1.532102
411.800 1.532982
411.900 1.535620
412.000 1.539138
412.100 1.545295
412.200 1.550572
412.300 1.558487
412.400 1.572559
412.500 1.587511
412.600 1.579595
412.700 1.561126
412.800 1.548813
412.900 1.542656
413.000 1.542656
413.100 1.549692
413.200 1.560246
413.300 1.575198
413.400 1.596306
413.500 1.605101
413.600 1.613017
413.700 1.618294
413.800 1.624450
413.900 1.630607
414.000 1.629727
414.100 1.621812
414.200 1.607740
414.300 1.593668
414.400 1.587511
414.500 1.594547
414.600 1.607740
414.700 1.617414
414.800 1.620053
414.900 1.616535
415.000 1.620932
415.100 1.626209
415.200 1.628848
415.300 1.629727
415.400 1.627089
415.500 1.622691
