# Wavelength (nm)   F_lamA (normalized erg/cm2/s/A)9.100 0.000054
9.400 0.000077
9.600 0.000096
9.800 0.000119
10.000 0.000145
10.200 0.000175
10.400 0.000209
10.600 0.000249
10.800 0.000293
11.000 0.000343
11.400 0.000461
11.800 0.000604
12.100 0.000729
12.500 0.000920
12.700 0.001026
12.800 0.001082
13.100 0.001261
13.200 0.001324
13.400 0.001456
13.700 0.001668
14.000 0.001896
14.300 0.002141
14.700 0.002490
15.100 0.002865
15.500 0.003265
15.900 0.003687
16.200 0.004017
16.600 0.004472
17.000 0.004943
17.300 0.005306
17.700 0.005798
18.000 0.006174
18.200 0.006426
18.600 0.006936
19.100 0.007578
19.400 0.007961
19.800 0.008475
20.200 0.008988
20.500 0.009370
21.000 0.009992
21.600 0.010732
22.000 0.011206
22.300 0.011556
22.700 0.012016
23.000 0.080389
23.400 0.079066
24.000 0.077323
24.600 0.075992
25.200 0.074514
25.700 0.071541
26.000 0.071922
26.400 0.071432
26.900 0.069767
27.400 0.068148
27.900 0.066210
28.400 0.064872
29.000 0.062903
29.600 0.060514
30.100 0.057144
30.800 0.055907
31.800 0.054319
32.800 0.051658
33.800 0.048988
34.800 0.046482
35.700 0.044529
36.600 0.042677
37.500 0.040755
38.500 0.038498
39.500 0.036872
40.500 0.035206
41.400 0.033696
42.200 0.032335
43.000 0.031097
44.100 0.029619
45.100 0.028265
46.000 0.027035
47.000 0.025805
48.000 0.024708
49.000 0.023541
50.000 0.022591
50.600 0.022241
51.200 0.022482
52.000 0.021704
53.000 0.020817
54.000 0.019790
55.000 0.019004
56.000 0.018467
57.000 0.017774
58.000 0.017027
59.000 0.016436
60.000 0.015759
61.000 0.015113
62.000 0.014677
63.000 0.014125
64.000 0.013658
65.000 0.013152
65.800 0.012732
66.500 0.012482
67.500 0.012078
68.500 0.011588
69.500 0.011276
70.500 0.010817
71.600 0.010521
72.600 0.010195
73.500 0.009907
74.500 0.009580
75.500 0.009276
76.500 0.008957
77.500 0.008716
78.500 0.008444
79.500 0.008195
80.500 0.007969
81.500 0.007746
82.500 0.007534
83.500 0.007241
84.500 0.007111
85.500 0.006907
86.500 0.006735
87.500 0.006556
88.500 0.006381
89.500 0.006211
90.500 0.006028
91.500 0.007199
92.500 0.009696
93.500 0.012086
94.500 0.015580
95.500 0.016747
96.500 0.018514
97.500 0.012700
98.500 0.018529
99.500 0.018093
100.500 0.018521
101.500 0.017222
102.500 0.011930
103.500 0.015977
104.500 0.017868
105.500 0.021206
106.500 0.028949
107.500 0.041183
108.500 0.049346
109.500 0.051829
110.500 0.078288
111.500 0.080700
112.500 0.073759
113.500 0.072335
114.500 0.055992
115.500 0.039704
116.500 0.027673
117.500 0.017471
118.500 0.014319
119.500 0.012856
120.500 0.011673
121.500 0.008070
122.500 0.011424
123.500 0.012366
124.500 0.013160
125.500 0.016949
126.500 0.025144
127.500 0.043346
128.500 0.072444
129.500 0.102101
130.500 0.128327
131.500 0.165447
132.500 0.199689
133.500 0.224202
134.500 0.257432
135.500 0.263891
136.500 0.285136
137.500 0.306070
138.500 0.322179
139.500 0.339222
140.500 0.343113
141.500 0.360000
142.500 0.362879
143.500 0.354630
144.200 0.386148
144.700 0.380078
145.500 0.400078
146.500 0.383424
147.500 0.397899
148.500 0.402412
149.500 0.408872
150.500 0.423035
151.200 0.423424
151.700 0.417821
152.500 0.419922
153.500 0.419689
154.500 0.431829
155.500 0.430272
156.500 0.402879
157.500 0.436187
158.500 0.451673
159.500 0.468560
160.500 0.438911
161.500 0.458677
162.500 0.438288
163.500 0.454942
164.500 0.482490
165.500 0.431751
166.500 0.500545
167.200 0.464981
167.700 0.487704
168.500 0.510350
169.500 0.491751
170.500 0.493852
171.500 0.513152
172.500 0.507393
173.500 0.524514
174.500 0.513774
175.500 0.529183
176.500 0.498521
177.500 0.523424
178.500 0.520156
179.500 0.535798
180.500 0.549183
181.500 0.546304
182.500 0.533463
183.500 0.539533
184.500 0.515097
185.500 0.530661
186.500 0.538521
187.500 0.539455
188.500 0.540311
189.500 0.544436
190.500 0.535564
191.500 0.541868
192.500 0.547471
193.500 0.528872
194.500 0.553152
195.500 0.552763
196.700 0.559611
197.600 0.548171
198.400 0.546926
199.500 0.546148
200.500 0.533385
201.500 0.531518
202.500 0.520856
203.500 0.543191
204.500 0.550428
205.500 0.539300
206.500 0.538521
207.400 0.557510
207.800 0.558988
208.500 0.556187
209.500 0.548171
210.500 0.543813
211.500 0.549105
212.500 0.547393
213.500 0.528716
214.500 0.550117
215.500 0.544903
216.500 0.528171
217.500 0.529883
218.500 0.539377
219.500 0.560156
220.500 0.545525
221.500 0.523969
222.500 0.531206
223.500 0.563735
224.500 0.545525
225.500 0.526926
226.500 0.516809
227.500 0.540934
228.500 0.549261
229.500 0.530895
230.500 0.545136
231.500 0.543268
232.500 0.500311
233.500 0.530428
234.500 0.491284
235.500 0.541712
236.500 0.501946
237.500 0.528327
238.500 0.476265
239.500 0.511673
240.500 0.505447
241.500 0.510506
242.500 0.545058
243.500 0.532685
244.500 0.547860
245.500 0.546070
246.500 0.540623
247.500 0.524591
248.500 0.521712
249.500 0.516265
250.500 0.558755
251.300 0.521245
251.800 0.502802
252.500 0.489572
253.500 0.499300
254.500 0.504125
255.500 0.537821
256.500 0.534008
257.500 0.557588
258.500 0.558988
259.500 0.552062
260.500 0.538054
261.500 0.524825
262.500 0.552218
263.500 0.568171
264.500 0.617899
265.500 0.626381
266.500 0.596732
267.500 0.614553
268.500 0.625525
269.500 0.598054
270.500 0.606304
271.500 0.578444
272.500 0.581401
273.500 0.600311
274.500 0.540778
275.500 0.561712
276.500 0.593619
277.500 0.614086
278.500 0.594241
279.500 0.441634
280.500 0.486926
281.500 0.632218
282.500 0.637743
283.500 0.628482
284.500 0.614864
285.500 0.570817
286.500 0.624202
287.500 0.626926
288.500 0.634630
289.500 0.638521
291.000 0.665370
293.000 0.655486
295.000 0.649961
297.000 0.654786
299.000 0.660389
301.000 0.663969
303.000 0.666693
305.000 0.672529
307.000 0.668482
309.000 0.668794
311.000 0.668327
313.000 0.667004
315.000 0.667237
317.000 0.675097
319.000 0.655331
321.000 0.670117
323.000 0.657276
325.000 0.679300
327.000 0.696887
329.000 0.698288
331.000 0.699922
332.200 0.563268
332.300 0.535331
332.400 0.528482
332.500 0.538833
332.600 0.540778
332.700 0.535331
332.800 0.548560
332.900 0.560545
333.000 0.577510
333.100 0.585992
333.200 0.577977
333.300 0.569261
333.400 0.552840
333.500 0.550895
333.600 0.546770
333.700 0.542879
333.800 0.551206
333.900 0.556420
334.000 0.562101
334.100 0.566148
334.200 0.561323
334.300 0.571984
334.400 0.585370
334.500 0.584047
334.600 0.576809
334.700 0.549650
334.800 0.524358
334.900 0.509650
335.000 0.525058
335.100 0.533774
335.200 0.526615
335.300 0.530350
335.400 0.543502
335.500 0.574708
335.600 0.580545
335.700 0.560856
335.800 0.521089
335.900 0.481479
336.000 0.455875
336.100 0.465214
336.200 0.494241
336.300 0.530195
336.400 0.553230
336.500 0.542724
336.600 0.531206
336.700 0.528794
336.800 0.526070
336.900 0.523424
337.000 0.497432
337.100 0.473152
337.200 0.462957
337.300 0.477743
337.400 0.503658
337.500 0.537121
337.600 0.555564
337.700 0.552918
337.800 0.536187
337.900 0.524047
338.000 0.527626
338.100 0.537276
338.200 0.540311
338.300 0.541401
338.400 0.546926
338.500 0.558054
338.600 0.555798
338.700 0.534864
338.800 0.516887
338.900 0.536342
339.000 0.560623
339.100 0.576965
339.200 0.567004
339.300 0.545447
339.400 0.550195
339.500 0.565914
339.600 0.581946
339.700 0.592529
339.800 0.601946
339.900 0.602179
340.000 0.596420
340.100 0.583113
340.200 0.563191
340.300 0.553463
340.400 0.544436
340.500 0.553541
340.600 0.558444
340.700 0.555019
340.800 0.543891
340.900 0.543113
341.000 0.560389
341.100 0.557354
341.200 0.550195
341.300 0.539767
341.400 0.538054
341.500 0.557121
341.600 0.568949
341.700 0.571984
341.800 0.577588
341.900 0.581556
342.000 0.589027
342.100 0.592140
342.200 0.575175
342.300 0.551518
342.400 0.543268
342.500 0.551984
342.600 0.559377
342.700 0.571751
342.800 0.589805
342.900 0.606848
343.000 0.617121
343.100 0.598911
343.200 0.576265
343.300 0.562568
343.400 0.572685
343.500 0.596654
343.600 0.603424
343.700 0.592062
343.800 0.576732
343.900 0.563969
344.000 0.557665
344.100 0.544358
344.200 0.535097
344.300 0.531907
344.400 0.538755
344.500 0.549883
344.600 0.567393
344.700 0.589261
344.800 0.603424
344.900 0.616187
345.000 0.603735
345.100 0.579455
345.200 0.558444
345.300 0.552218
345.400 0.564591
345.500 0.574163
345.600 0.574397
345.700 0.575564
345.800 0.571595
345.900 0.568482
346.000 0.556732
346.100 0.550195
346.200 0.559767
346.300 0.563969
346.400 0.568171
346.500 0.558755
346.600 0.560311
346.700 0.576887
346.800 0.597043
346.900 0.609728
347.000 0.613774
347.100 0.607471
347.200 0.598054
347.300 0.573152
347.400 0.552607
347.500 0.545992
347.600 0.550195
347.700 0.575019
347.800 0.592918
347.900 0.601401
348.000 0.611362
348.100 0.607471
348.200 0.599767
348.300 0.595486
348.400 0.594475
348.500 0.604280
348.600 0.615720
348.700 0.613385
348.800 0.602724
348.900 0.587004
349.000 0.576732
349.100 0.587471
349.200 0.602879
349.300 0.601946
349.400 0.595720
349.500 0.587626
349.600 0.579222
349.700 0.584358
349.800 0.578911
349.900 0.576732
350.000 0.572296
350.100 0.567860
350.200 0.577665
350.300 0.583191
350.400 0.584514
350.500 0.578988
350.600 0.571595
350.700 0.566226
350.800 0.558755
350.900 0.564591
351.000 0.569883
351.100 0.572918
351.200 0.568016
351.300 0.558755
351.400 0.559767
351.500 0.572218
351.600 0.598599
351.700 0.615486
351.800 0.618132
351.900 0.601012
352.000 0.587860
352.100 0.581790
352.200 0.575564
352.300 0.566459
352.400 0.554163
352.500 0.546304
352.600 0.553230
352.700 0.564981
352.800 0.578988
352.900 0.590195
353.000 0.601401
353.100 0.613152
353.200 0.605914
353.300 0.578521
353.400 0.562957
353.500 0.557743
353.600 0.581634
353.700 0.609261
353.800 0.618521
353.900 0.627782
354.000 0.624436
354.100 0.617977
354.200 0.618444
354.300 0.631206
354.400 0.639222
354.500 0.633541
354.600 0.627237
354.700 0.618833
354.800 0.613852
354.900 0.614630
355.000 0.623191
355.100 0.638132
355.200 0.635019
355.300 0.614241
355.400 0.599533
355.500 0.602023
355.600 0.614708
355.700 0.632062
355.800 0.642724
355.900 0.643891
356.000 0.639767
356.100 0.634708
356.200 0.626693
356.300 0.614241
356.400 0.599611
356.500 0.587782
356.600 0.583035
356.700 0.584981
356.800 0.582879
356.900 0.580000
357.000 0.573230
357.100 0.563191
357.200 0.560000
357.300 0.558755
357.400 0.563735
357.500 0.575953
357.600 0.585759
357.700 0.591362
357.800 0.597354
357.900 0.594630
358.000 0.582179
358.100 0.567004
358.200 0.555409
358.300 0.556654
358.400 0.555175
358.500 0.545292
358.600 0.530428
358.700 0.521946
358.800 0.532607
358.900 0.557743
359.000 0.578911
359.100 0.588405
359.200 0.584981
359.300 0.581401
359.400 0.585136
359.500 0.598677
359.600 0.610584
359.700 0.615175
359.800 0.615409
359.900 0.617121
360.000 0.617354
360.100 0.604280
360.200 0.593463
360.300 0.589805
360.400 0.598288
360.500 0.604358
360.600 0.601712
360.700 0.593230
360.800 0.585214
360.900 0.586537
361.000 0.587237
361.100 0.590428
361.200 0.597276
361.300 0.602179
361.400 0.610506
361.500 0.630895
361.600 0.632763
361.700 0.622179
361.800 0.603658
361.900 0.589339
362.000 0.598911
362.100 0.612062
362.200 0.619689
362.300 0.622101
362.400 0.628016
362.500 0.645447
362.600 0.666770
362.700 0.682646
362.800 0.673463
362.900 0.651051
363.000 0.616654
363.100 0.597354
363.200 0.605447
363.300 0.627626
363.400 0.636809
363.500 0.631595
363.600 0.627704
363.700 0.636420
363.800 0.647626
363.900 0.653852
364.000 0.656498
364.100 0.650739
364.200 0.639066
364.300 0.628949
364.400 0.623424
364.500 0.622412
364.600 0.620233
364.700 0.618366
364.800 0.618599
364.900 0.616654
365.000 0.615331
365.100 0.617899
365.200 0.631440
365.300 0.642957
365.400 0.655720
365.500 0.668560
365.600 0.677588
365.700 0.682490
365.800 0.680545
365.900 0.677665
366.000 0.675253
366.100 0.664591
366.200 0.653385
366.300 0.647471
366.400 0.651907
366.500 0.661089
366.600 0.664125
366.700 0.661556
366.800 0.652296
366.900 0.643346
367.000 0.641868
367.100 0.647626
367.200 0.659455
367.300 0.666226
367.400 0.662802
367.500 0.656265
367.600 0.640623
367.700 0.625370
367.800 0.616809
367.900 0.619689
368.000 0.628949
368.100 0.634475
368.200 0.634008
368.300 0.630350
368.400 0.630895
368.500 0.624747
368.600 0.622179
368.700 0.625136
368.800 0.643502
368.900 0.666537
369.000 0.665914
369.100 0.656732
369.200 0.651206
369.300 0.656732
369.400 0.667782
369.500 0.673774
369.600 0.664591
369.700 0.647393
369.800 0.657043
369.900 0.687004
370.000 0.720934
370.100 0.720856
370.200 0.678444
370.300 0.623969
370.400 0.591518
370.500 0.592607
370.600 0.614319
370.700 0.646304
370.800 0.666148
370.900 0.661012
371.000 0.630817
371.100 0.602724
371.200 0.591673
371.300 0.616809
371.400 0.670973
371.500 0.718521
371.600 0.751051
371.700 0.764981
371.800 0.746926
371.900 0.689572
372.000 0.610350
372.100 0.547471
372.200 0.534942
372.300 0.572996
372.400 0.652296
372.500 0.709339
372.600 0.746148
372.700 0.764747
372.800 0.773307
372.900 0.775097
373.000 0.766070
373.100 0.728405
373.200 0.652296
373.300 0.573074
373.400 0.509261
373.500 0.499455
373.600 0.544514
373.700 0.613541
373.800 0.687082
373.900 0.763191
374.000 0.803113
374.100 0.826459
374.200 0.817121
374.300 0.800000
374.400 0.773541
374.500 0.743735
374.600 0.710506
374.700 0.672918
374.800 0.613696
374.900 0.560778
375.000 0.532685
375.100 0.548405
375.200 0.598444
375.300 0.693463
375.400 0.761556
375.500 0.803891
375.600 0.824903
375.700 0.820233
375.800 0.814008
375.900 0.812451
376.000 0.817899
376.100 0.835798
376.200 0.842023
376.300 0.834241
376.400 0.822568
376.500 0.797665
376.600 0.771128
376.700 0.727471
376.800 0.656887
376.900 0.597899
377.000 0.541946
377.100 0.544825
377.200 0.594708
377.300 0.669416
377.400 0.723035
377.500 0.772763
377.600 0.799222
377.700 0.835798
377.800 0.877043
377.900 0.911284
378.000 0.950195
378.100 0.967315
378.200 0.972763
378.300 0.969650
378.400 0.966537
378.500 0.957198
378.600 0.947860
378.700 0.926070
378.800 0.908949
378.900 0.895720
379.000 0.882490
379.100 0.869261
379.200 0.835798
379.300 0.799222
379.400 0.744436
379.500 0.678054
379.600 0.607549
379.700 0.534319
379.800 0.509650
379.900 0.543735
380.000 0.624591
380.100 0.708872
380.200 0.786770
380.300 0.821790
380.400 0.863035
380.500 0.880934
380.600 0.899611
380.700 0.924514
380.800 0.947860
380.900 0.979767
381.000 1.000000
381.100 1.011673
381.200 0.998444
381.300 0.982101
381.400 0.968872
381.500 0.968872
381.600 0.985214
381.700 1.005447
381.800 1.008560
381.900 0.981323
382.000 0.958755
382.100 0.948638
382.200 0.954864
382.300 0.948638
382.400 0.919066
382.500 0.891829
382.600 0.865370
382.700 0.844358
382.800 0.811673
382.900 0.782879
383.000 0.756187
383.100 0.709805
383.200 0.665292
383.300 0.586226
383.400 0.523658
383.500 0.486615
383.600 0.490506
383.700 0.528794
383.800 0.594163
383.900 0.649494
384.000 0.706926
384.100 0.766459
384.200 0.816342
384.300 0.874708
384.400 0.908949
384.500 0.938521
384.600 0.966537
384.700 0.992218
384.800 1.010895
384.900 1.011673
385.000 1.015564
385.100 1.031128
385.200 1.059144
385.300 1.084825
385.400 1.088716
385.500 1.080934
385.600 1.067704
385.700 1.057588
385.800 1.046693
385.900 1.045914
386.000 1.060700
386.100 1.080934
386.200 1.093385
386.300 1.098833
386.400 1.092607
386.500 1.083268
386.600 1.083268
386.700 1.086381
386.800 1.089494
386.900 1.084825
387.000 1.066926
387.100 1.050584
387.200 1.023346
387.300 1.009339
387.400 1.002335
387.500 1.001556
387.600 0.995331
387.700 0.965759
387.800 0.939300
387.900 0.916732
388.000 0.914397
388.100 0.906615
388.200 0.877821
388.300 0.848249
388.400 0.800000
388.500 0.750428
388.600 0.682412
388.700 0.600078
388.800 0.542490
388.900 0.522490
389.000 0.556965
389.100 0.631673
389.200 0.703268
389.300 0.748405
389.400 0.791440
389.500 0.818677
389.600 0.861479
389.700 0.891051
389.800 0.915175
389.900 0.935409
390.000 0.950195
390.100 0.976654
390.200 0.991440
390.300 1.006226
390.400 1.008560
390.500 1.010895
390.600 1.028016
390.700 1.055253
390.800 1.089494
390.900 1.113619
391.000 1.126848
391.100 1.131518
391.200 1.129961
391.300 1.122179
391.400 1.110506
391.500 1.112840
391.600 1.122957
391.700 1.123735
391.800 1.118288
391.900 1.110506
392.000 1.109728
392.100 1.113619
392.200 1.116732
392.300 1.122957
392.400 1.122957
392.500 1.119066
392.600 1.098054
392.700 1.071595
392.800 1.033463
392.900 0.989883
393.000 0.931518
393.100 0.838132
393.200 0.719533
393.300 0.616265
393.400 0.601401
393.500 0.687938
393.600 0.813230
393.700 0.926070
393.800 1.014008
393.900 1.055253
394.000 1.077043
394.100 1.094163
394.200 1.099611
394.300 1.096498
394.400 1.094942
394.500 1.096498
394.600 1.103502
394.700 1.101167
394.800 1.088716
394.900 1.078599
395.000 1.074708
395.100 1.067704
395.200 1.058366
395.300 1.061479
395.400 1.056031
395.500 1.045136
395.600 1.028016
395.700 1.005447
395.800 0.996887
395.900 0.981323
396.000 0.951751
396.100 0.915953
396.200 0.867704
396.300 0.831128
396.400 0.781323
396.500 0.704903
396.600 0.604825
396.700 0.473541
396.800 0.384825
396.900 0.338599
397.000 0.374942
397.100 0.461167
397.200 0.569572
397.300 0.652607
397.400 0.735409
397.500 0.787549
397.600 0.843580
397.700 0.885603
397.800 0.922179
397.900 0.961868
398.000 0.977432
398.100 0.994553
398.200 1.009339
398.300 1.028794
398.400 1.049805
398.500 1.066148
398.600 1.083268
398.700 1.100389
398.800 1.121401
398.900 1.127626
399.000 1.129961
399.100 1.137743
399.200 1.143191
399.300 1.155642
399.400 1.162646
399.500 1.164202
399.600 1.154864
399.700 1.143969
399.800 1.142412
399.900 1.159533
400.000 1.173541
400.100 1.182879
400.200 1.183658
400.300 1.175875
400.400 1.164981
400.500 1.154864
400.600 1.158755
400.700 1.172763
400.800 1.191440
400.900 1.202335
401.000 1.207782
401.100 1.207004
401.200 1.202335
401.300 1.199222
401.400 1.199222
401.500 1.206226
401.600 1.213230
401.700 1.217899
401.800 1.226459
401.900 1.228794
402.000 1.231128
402.100 1.229572
402.200 1.225681
402.300 1.221012
402.400 1.214008
402.500 1.214786
402.600 1.219455
402.700 1.230350
402.800 1.233463
402.900 1.227237
403.000 1.210117
403.100 1.200000
403.200 1.195331
403.300 1.196109
403.400 1.203891
403.500 1.218677
403.600 1.235798
403.700 1.254475
403.800 1.254475
403.900 1.245136
404.000 1.235019
404.100 1.231128
404.200 1.234241
404.300 1.229572
404.400 1.206226
404.500 1.182101
404.600 1.172763
404.700 1.190661
404.800 1.214008
404.900 1.231128
405.000 1.231907
405.100 1.233463
405.200 1.231907
405.300 1.222568
405.400 1.210895
405.500 1.207782
405.600 1.210117
405.700 1.215564
405.800 1.217899
405.900 1.228016
406.000 1.233463
406.100 1.224903
406.200 1.199222
406.300 1.174319
406.400 1.164981
406.500 1.162646
406.600 1.166537
406.700 1.168093
406.800 1.168872
406.900 1.168093
407.000 1.155642
407.100 1.131518
407.200 1.121401
407.300 1.127626
407.400 1.136187
407.500 1.135409
407.600 1.115953
407.700 1.098054
407.800 1.089494
407.900 1.100389
408.000 1.114397
408.100 1.119844
408.200 1.118288
408.300 1.108949
408.400 1.098833
408.500 1.084825
408.600 1.078599
408.700 1.074708
408.800 1.069261
408.900 1.063813
409.000 1.044358
409.100 1.031128
409.200 1.020233
409.300 0.996109
409.400 0.975875
409.500 0.936187
409.600 0.904280
409.700 0.866148
409.800 0.814786
409.900 0.756420
410.000 0.661089
410.100 0.601323
410.200 0.584981
410.300 0.642490
410.400 0.718599
410.500 0.800000
410.600 0.840467
410.700 0.882490
410.800 0.910506
410.900 0.936965
411.000 0.968093
411.100 0.985992
411.200 1.011673
411.300 1.029572
411.400 1.049027
411.500 1.068482
411.600 1.079377
411.700 1.085603
411.800 1.084825
411.900 1.085603
412.000 1.089494
412.100 1.099611
412.200 1.112062
412.300 1.122179
412.400 1.133074
412.500 1.140856
412.600 1.143969
412.700 1.145525
412.800 1.147082
412.900 1.151751
413.000 1.149416
413.100 1.140078
413.200 1.133074
413.300 1.136187
413.400 1.152529
413.500 1.164981
413.600 1.175097
413.700 1.182879
413.800 1.192218
413.900 1.202335
414.000 1.200000
414.100 1.186770
414.200 1.171206
414.300 1.156420
414.400 1.158755
414.500 1.167315
414.600 1.180545
414.700 1.182879
414.800 1.184436
414.900 1.186770
415.000 1.190661
415.100 1.195331
415.200 1.192218
415.300 1.185992
415.400 1.178210
415.500 1.175097
