# Wavelength (nm)   F_lamA (normalized erg/cm2/s/A)9.100 0.000000
9.400 0.000000
9.600 0.000000
9.800 0.000000
10.000 0.000000
10.200 0.000000
10.400 0.000000
10.600 0.000000
10.800 0.000000
11.000 0.000000
11.400 0.000000
11.800 0.000000
12.100 0.000001
12.500 0.000002
12.700 0.000002
12.800 0.000002
13.100 0.000004
13.200 0.000004
13.400 0.000006
13.700 0.000009
14.000 0.000014
14.300 0.000020
14.700 0.000033
15.100 0.000054
15.500 0.000084
15.900 0.000129
16.200 0.000199
16.600 0.000292
17.000 0.000418
17.300 0.000542
17.700 0.000755
18.000 0.000965
18.200 0.001142
18.600 0.001538
19.100 0.002194
19.400 0.002699
19.800 0.003506
20.200 0.004512
20.500 0.005417
21.000 0.007249
21.600 0.010110
22.000 0.012481
22.300 0.014552
22.700 0.018140
23.000 0.105058
23.400 0.809552
24.000 19.267280
24.600 20.424206
25.200 23.998813
25.700 5.471670
26.000 26.119846
26.400 43.295758
26.900 46.781371
27.400 46.870365
27.900 42.628300
28.400 49.391872
29.000 49.095224
29.600 41.649362
30.100 15.025215
30.800 29.382972
31.800 55.132008
32.800 57.178879
33.800 56.897063
34.800 55.754969
35.700 62.474043
36.600 73.909819
37.500 72.456244
38.500 65.010383
39.500 74.577277
40.500 79.753782
41.400 78.908336
42.200 75.348561
43.000 72.011273
44.100 76.208840
45.100 76.549985
46.000 71.640463
47.000 70.706022
48.000 73.242361
49.000 67.279739
50.000 72.085435
50.600 74.265796
51.200 109.789380
52.000 104.123406
53.000 97.715811
54.000 87.436962
55.000 85.404924
56.000 99.377039
57.000 101.097597
58.000 96.766538
59.000 97.078018
60.000 88.534559
61.000 83.758529
62.000 96.722041
63.000 92.954613
64.000 94.867992
65.000 91.471373
65.800 86.769505
66.500 90.700089
67.500 92.049837
68.500 84.040344
69.500 88.490062
70.500 79.101157
71.600 87.496292
72.600 86.547019
73.500 85.998220
74.500 82.957579
75.500 81.370513
76.500 75.200237
77.500 78.656185
78.500 75.689706
79.500 76.238505
80.500 75.556215
81.500 75.066746
82.500 74.384456
83.500 65.114209
84.500 71.729457
85.500 70.083061
86.500 70.172056
87.500 69.178285
88.500 68.021359
89.500 67.057253
90.500 65.351528
91.500 60.827648
92.500 102.654999
93.500 139.469000
94.500 170.424206
95.500 181.103530
96.500 196.974192
97.500 135.226936
98.500 178.730347
99.500 162.563038
100.500 167.902699
101.500 167.902699
102.500 126.994957
103.500 161.376446
104.500 168.051023
105.500 163.304657
106.500 153.218629
107.500 152.625334
108.500 136.665678
109.500 147.107683
110.500 141.456541
111.500 138.252744
112.500 130.213586
113.500 132.675764
114.500 129.041827
115.500 124.161970
116.500 120.097894
117.500 103.233462
118.500 111.969742
119.500 108.513794
120.500 104.494215
121.500 79.664788
122.500 99.332542
123.500 100.741620
124.500 98.991397
125.500 97.745476
126.500 96.633047
127.500 95.757935
128.500 94.319193
129.500 90.789083
130.500 88.890537
131.500 88.905369
132.500 86.294868
133.500 84.336992
134.500 83.402551
135.500 80.762385
136.500 78.107387
137.500 76.060516
138.500 74.784930
139.500 64.580243
140.500 58.261643
141.500 70.513201
142.500 66.745773
143.500 67.606052
144.200 66.315633
144.700 65.648176
145.500 63.868288
146.500 62.904183
147.500 61.747256
148.500 61.346781
149.500 59.670721
150.500 58.721448
151.200 57.698012
151.700 57.015722
152.500 56.021952
153.500 52.328686
154.500 45.743103
155.500 46.262237
156.500 48.991397
157.500 49.466034
158.500 48.902403
159.500 48.205280
160.500 46.024918
161.500 44.778997
162.500 44.378523
163.500 43.725897
164.500 42.138831
165.500 43.280926
166.500 42.524473
167.200 40.729754
167.700 42.746959
168.500 41.797686
169.500 40.952240
170.500 39.958469
171.500 38.742213
172.500 37.911599
173.500 38.282409
174.500 37.570454
175.500 36.754672
176.500 36.205874
177.500 35.538416
178.500 35.197271
179.500 34.411154
180.500 33.995847
181.500 33.254227
182.500 32.705429
183.500 32.319786
184.500 31.504005
185.500 31.029368
186.500 30.614061
187.500 30.050430
188.500 29.293978
189.500 28.923168
190.500 28.745179
191.500 28.137051
192.500 27.172946
193.500 27.350934
194.500 27.054287
195.500 26.119846
196.700 26.045684
197.600 25.808365
198.400 25.363394
199.500 24.814595
200.500 24.473450
201.500 24.117473
202.500 23.805992
203.500 23.301691
204.500 22.901216
205.500 18.392168
206.500 19.682587
207.400 22.085435
207.800 21.966775
208.500 21.833284
209.500 21.447642
210.500 21.165826
211.500 21.061999
212.500 20.691190
213.500 20.409374
214.500 20.038564
215.500 19.949570
216.500 19.296945
217.500 19.341442
218.500 18.837140
219.500 18.822308
220.500 18.525660
221.500 17.991694
222.500 17.932364
223.500 17.695046
224.500 17.428063
225.500 16.923761
226.500 16.938594
227.500 16.701276
228.500 16.404628
229.500 15.974488
230.500 15.692673
231.500 15.692673
232.500 15.321863
233.500 15.262533
234.500 15.040047
235.500 14.824978
236.500 14.603975
237.500 14.377039
238.500 13.834174
239.500 13.929101
240.500 13.774844
241.500 13.595372
242.500 13.451498
243.500 13.236428
244.500 13.067339
245.500 12.864135
246.500 12.714328
247.500 12.554138
248.500 12.356867
249.500 11.377929
250.500 11.984574
251.300 11.283002
251.800 11.681993
252.500 11.680510
253.500 11.560368
254.500 11.403144
255.500 11.257787
256.500 11.113913
257.500 10.980421
258.500 10.839513
259.500 10.657075
260.500 10.557698
261.500 10.397508
262.500 10.289232
263.500 10.158707
264.500 10.040047
265.500 9.912489
266.500 9.770098
267.500 9.621774
268.500 9.537229
269.500 9.388905
270.500 9.304361
271.500 9.170869
272.500 9.046277
273.500 8.752596
274.500 8.837140
275.500 8.725897
276.500 8.604272
277.500 8.528627
278.500 8.411451
279.500 8.249778
280.500 8.193414
281.500 8.119252
282.500 8.000593
283.500 7.899733
284.500 7.827054
285.500 7.730644
286.500 7.637200
287.500 7.548205
288.500 7.459211
289.500 7.368733
291.000 7.236725
293.000 7.073569
295.000 6.891130
297.000 6.738357
299.000 6.572234
301.000 6.415010
303.000 6.253337
305.000 6.113913
307.000 5.975972
309.000 5.836547
311.000 5.706022
313.000 5.568081
315.000 5.446455
317.000 5.320380
319.000 5.186888
321.000 5.029665
323.000 4.974785
325.000 4.867992
327.000 4.740433
329.000 4.651439
331.000 4.550578
332.200 4.504598
332.300 4.531296
332.400 4.500148
332.500 4.474933
332.600 4.434886
332.700 4.405221
332.800 4.381489
332.900 4.384456
333.000 4.394838
333.100 4.391872
333.200 4.374073
333.300 4.338475
333.400 4.314743
333.500 4.299911
333.600 4.270246
333.700 4.264313
333.800 4.258380
333.900 4.228716
334.000 4.196084
334.100 4.204984
334.200 4.231682
334.300 4.334026
334.400 4.387422
334.500 4.430436
334.600 4.464551
334.700 4.483833
334.800 4.428953
334.900 4.347375
335.000 4.157520
335.100 4.129338
335.200 4.153070
335.300 4.159003
335.400 4.144171
335.500 4.123406
335.600 4.147137
335.700 4.184218
335.800 4.213883
335.900 4.224266
336.000 4.230199
336.100 4.228716
336.200 4.230199
336.300 4.200534
336.400 4.172352
336.500 4.117473
336.600 4.084841
336.700 4.059626
336.800 4.059626
336.900 4.077425
337.000 4.124889
337.100 4.121922
337.200 4.075942
337.300 4.065559
337.400 4.078908
337.500 4.111540
337.600 4.118956
337.700 4.075942
337.800 4.072975
337.900 4.084841
338.000 4.133788
338.100 4.169386
338.200 4.175319
338.300 4.170869
338.400 4.153070
338.500 4.190151
338.600 4.227232
338.700 4.250964
338.800 4.250964
338.900 4.194601
339.000 4.172352
339.100 4.163453
339.200 4.197567
339.300 4.225749
339.400 4.289528
339.500 4.285079
339.600 4.230199
339.700 4.156037
339.800 4.093741
339.900 3.983981
340.000 3.955799
340.100 3.978048
340.200 3.972115
340.300 3.958766
340.400 3.976565
340.500 3.985464
340.600 3.972115
340.700 3.978048
340.800 3.991397
340.900 4.004746
341.000 4.010679
341.100 3.951350
341.200 3.948383
341.300 3.981015
341.400 4.024028
341.500 4.052210
341.600 4.047760
341.700 4.043311
341.800 4.037378
341.900 4.031445
342.000 4.029961
342.100 4.038861
342.200 4.049244
342.300 4.062593
342.400 4.058143
342.500 4.040344
342.600 4.038861
342.700 4.041827
342.800 4.068526
342.900 4.062593
343.000 4.024028
343.100 4.016612
343.200 4.018096
343.300 4.025512
343.400 4.035894
343.500 4.058143
343.600 4.059626
343.700 4.050727
343.800 4.015129
343.900 3.985464
344.000 3.918718
344.100 3.905369
344.200 3.912786
344.300 3.955799
344.400 3.979531
344.500 3.932068
344.600 3.909819
344.700 3.900920
344.800 3.938001
344.900 3.972115
345.000 3.872738
345.100 3.814892
345.200 3.789677
345.300 3.791160
345.400 3.805992
345.500 3.803026
345.600 3.807476
345.700 3.807476
345.800 3.795610
345.900 3.785227
346.000 3.779294
346.100 3.779294
346.200 3.810442
346.300 3.932068
346.400 3.877188
346.500 3.872738
346.600 3.889054
346.700 3.877188
346.800 3.851973
346.900 3.851973
347.000 3.865322
347.100 3.804509
347.200 3.791160
347.300 3.843073
347.400 3.841590
347.500 3.823791
347.600 3.788193
347.700 3.705132
347.800 3.625037
347.900 3.605755
348.000 3.648769
348.100 3.709582
348.200 3.685850
348.300 3.633937
348.400 3.651735
348.500 3.736280
348.600 3.767428
348.700 3.791160
348.800 3.846040
348.900 3.863839
349.000 3.829724
349.100 3.817858
349.200 3.862355
349.300 3.866805
349.400 3.857906
349.500 3.835657
349.600 3.791160
349.700 3.798576
349.800 3.817858
349.900 3.810442
350.000 3.758529
350.100 3.678434
350.200 3.681400
350.300 3.705132
350.400 3.675467
350.500 3.626520
350.600 3.613171
350.700 3.633937
350.800 3.654702
350.900 3.656185
351.000 3.653219
351.100 3.651735
351.200 3.638386
351.300 3.620587
351.400 3.641353
351.500 3.648769
351.600 3.660635
351.700 3.630970
351.800 3.626520
351.900 3.639869
352.000 3.647286
352.100 3.644319
352.200 3.632453
352.300 3.630970
352.400 3.668051
352.500 3.628004
352.600 3.620587
352.700 3.622071
352.800 3.632453
352.900 3.647286
353.000 3.659152
353.100 3.681400
353.200 3.700682
353.300 3.668051
353.400 3.620587
353.500 3.614654
353.600 3.620587
353.700 3.587956
353.800 3.580540
353.900 3.577573
354.000 3.604272
354.100 3.629487
354.200 3.623554
354.300 3.613171
354.400 3.616138
354.500 3.617621
354.600 3.599822
354.700 3.619104
354.800 3.647286
354.900 3.651735
355.000 3.619104
355.100 3.595372
355.200 3.613171
355.300 3.636903
355.400 3.633937
355.500 3.607238
355.600 3.580540
355.700 3.590923
355.800 3.608721
355.900 3.607238
356.000 3.593889
356.100 3.604272
356.200 3.623554
356.300 3.607238
356.400 3.586473
356.500 3.610205
356.600 3.633937
356.700 3.599822
356.800 3.602788
356.900 3.580540
357.000 3.527143
357.100 3.432216
357.200 3.427766
357.300 3.435182
357.400 3.420350
357.500 3.417384
357.600 3.435182
357.700 3.436666
357.800 3.421833
357.900 3.404034
358.000 3.415900
358.100 3.435182
358.200 3.432216
358.300 3.420350
358.400 3.418867
358.500 3.421833
358.600 3.427766
358.700 3.423317
358.800 3.402551
358.900 3.392168
359.000 3.417384
359.100 3.421833
359.200 3.399585
359.300 3.396618
359.400 3.401068
359.500 3.389202
359.600 3.374370
359.700 3.378819
359.800 3.387719
359.900 3.407001
360.000 3.444082
360.100 3.438149
360.200 3.441115
360.300 3.418867
360.400 3.402551
360.500 3.404034
360.600 3.402551
360.700 3.402551
360.800 3.414417
360.900 3.427766
361.000 3.421833
361.100 3.378819
361.200 3.383269
361.300 3.380303
361.400 3.358054
361.500 3.353604
361.600 3.368437
361.700 3.384752
361.800 3.402551
361.900 3.412934
362.000 3.381786
362.100 3.374370
362.200 3.411451
362.300 3.412934
362.400 3.390685
362.500 3.383269
362.600 3.402551
362.700 3.405518
362.800 3.380303
362.900 3.362504
363.000 3.384752
363.100 3.411451
363.200 3.405518
363.300 3.389202
363.400 3.408484
363.500 3.390685
363.600 3.307624
363.700 3.277959
363.800 3.283892
363.900 3.280926
364.000 3.285375
364.100 3.312074
364.200 3.328389
364.300 3.300208
364.400 3.257194
364.500 3.246811
364.600 3.254227
364.700 3.261643
364.800 3.272026
364.900 3.282409
365.000 3.277959
365.100 3.258677
365.200 3.249778
365.300 3.242361
365.400 3.231979
365.500 3.242361
365.600 3.245328
365.700 3.236428
365.800 3.233462
365.900 3.230495
366.000 3.218629
366.100 3.209730
366.200 3.205280
366.300 3.218629
366.400 3.224562
366.500 3.215663
366.600 3.209730
366.700 3.190448
366.800 3.180065
366.900 3.188965
367.000 3.202314
367.100 3.202314
367.200 3.187481
367.300 3.169683
367.400 3.162266
367.500 3.159300
367.600 3.180065
367.700 3.162266
367.800 3.153367
367.900 3.151884
368.000 3.147434
368.100 3.153367
368.200 3.157817
368.300 3.151884
368.400 3.138535
368.500 3.138535
368.600 3.141501
368.700 3.135568
368.800 3.140018
368.900 3.148917
369.000 3.137051
369.100 3.119252
369.200 3.128152
369.300 3.135568
369.400 3.099970
369.500 3.082171
369.600 3.080688
369.700 3.071789
369.800 3.065856
369.900 3.080688
370.000 3.108870
370.100 3.085138
370.200 3.030258
370.300 2.981311
370.400 2.948680
370.500 2.953130
370.600 2.975378
370.700 3.008009
370.800 3.010976
370.900 3.000593
371.000 2.970929
371.100 2.932364
371.200 2.907149
371.300 2.908632
371.400 2.950163
371.500 3.003560
371.600 3.022842
371.700 3.005043
371.800 3.005043
371.900 2.947197
372.000 2.874518
372.100 2.838920
372.200 2.846336
372.300 2.883417
372.400 2.913082
372.500 2.910116
372.600 2.916049
372.700 2.950163
372.800 2.981311
372.900 2.987244
373.000 2.982794
373.100 2.932364
373.200 2.878968
373.300 2.803322
373.400 2.748443
373.500 2.743993
373.600 2.787007
373.700 2.846336
373.800 2.920498
373.900 2.979828
374.000 3.016909
374.100 3.033225
374.200 3.018392
374.300 2.976861
374.400 2.964996
374.500 2.951646
374.600 2.914565
374.700 2.843370
374.800 2.742510
374.900 2.653515
375.000 2.626817
375.100 2.672797
375.200 2.730644
375.300 2.773658
375.400 2.804806
375.500 2.846336
375.600 2.864135
375.700 2.855236
375.800 2.840403
375.900 2.821121
376.000 2.803322
376.100 2.801839
376.200 2.883417
376.300 2.921982
376.400 2.902699
376.500 2.853753
376.600 2.800356
376.700 2.732127
376.800 2.657965
376.900 2.568971
377.000 2.479976
377.100 2.472560
377.200 2.548205
377.300 2.644616
377.400 2.727677
377.500 2.787007
377.600 2.818155
377.700 2.843370
377.800 2.846336
377.900 2.841887
378.000 2.843370
378.100 2.850786
378.200 2.868585
378.300 2.861169
378.400 2.849303
378.500 2.877484
378.600 2.889350
378.700 2.876001
378.800 2.855236
378.900 2.824088
379.000 2.787007
379.100 2.757342
379.200 2.746959
379.300 2.738060
379.400 2.680214
379.500 2.604568
379.600 2.479976
379.700 2.370217
379.800 2.337585
379.900 2.408781
380.000 2.531890
380.100 2.650549
380.200 2.699496
380.300 2.741026
380.400 2.769208
380.500 2.804806
380.600 2.791457
380.700 2.792940
380.800 2.806289
380.900 2.810739
381.000 2.819638
381.100 2.827054
381.200 2.812222
381.300 2.806289
381.400 2.810739
381.500 2.804806
381.600 2.785524
381.700 2.782557
381.800 2.758825
381.900 2.743993
382.000 2.727677
382.100 2.726194
382.200 2.748443
382.300 2.772174
382.400 2.772174
382.500 2.770691
382.600 2.749926
382.700 2.758825
382.800 2.749926
382.900 2.706912
383.000 2.646099
383.100 2.589736
383.200 2.514091
383.300 2.405814
383.400 2.281222
383.500 2.187778
383.600 2.214476
383.700 2.328686
383.800 2.451795
383.900 2.542272
384.000 2.614951
384.100 2.649066
384.200 2.684663
384.300 2.724711
384.400 2.763275
384.500 2.792940
384.600 2.770691
384.700 2.761792
384.800 2.752892
384.900 2.770691
385.000 2.770691
385.100 2.782557
385.200 2.789973
385.300 2.779591
385.400 2.763275
385.500 2.746959
385.600 2.732127
385.700 2.708395
385.800 2.702462
385.900 2.739543
386.000 2.758825
386.100 2.776624
386.200 2.748443
386.300 2.708395
386.400 2.681697
386.500 2.671314
386.600 2.675764
386.700 2.693563
386.800 2.706912
386.900 2.698012
387.000 2.678730
387.100 2.671314
387.200 2.666864
387.300 2.674281
387.400 2.683180
387.500 2.683180
387.600 2.671314
387.700 2.656482
387.800 2.663898
387.900 2.669831
388.000 2.677247
388.100 2.649066
388.200 2.616434
388.300 2.582320
388.400 2.549689
388.500 2.484426
388.600 2.359834
388.700 2.212993
388.800 2.064669
388.900 2.023139
389.000 2.121032
389.100 2.304954
389.200 2.429546
389.300 2.534856
389.400 2.576387
389.500 2.611985
389.600 2.641649
389.700 2.654999
389.800 2.668348
389.900 2.674281
390.000 2.684663
390.100 2.692080
390.200 2.693563
390.300 2.700979
390.400 2.705429
390.500 2.708395
390.600 2.693563
390.700 2.698012
390.800 2.723228
390.900 2.718778
391.000 2.692080
391.100 2.696529
391.200 2.712845
391.300 2.700979
391.400 2.699496
391.500 2.709878
391.600 2.708395
391.700 2.703945
391.800 2.689113
391.900 2.662415
392.000 2.649066
392.100 2.640166
392.200 2.613468
392.300 2.571937
392.400 2.567487
392.500 2.600119
392.600 2.619401
392.700 2.634233
392.800 2.644616
392.900 2.650549
393.000 2.650549
393.100 2.598635
393.200 2.405814
393.300 2.116583
393.400 2.155147
393.500 2.450311
393.600 2.600119
393.700 2.654999
393.800 2.657965
393.900 2.647582
394.000 2.649066
394.100 2.657965
394.200 2.657965
394.300 2.637200
394.400 2.616434
394.500 2.580837
394.600 2.563038
394.700 2.567487
394.800 2.573420
394.900 2.579353
395.000 2.579353
395.100 2.567487
395.200 2.554138
395.300 2.551172
395.400 2.543756
395.500 2.533373
395.600 2.520024
395.700 2.511124
395.800 2.503708
395.900 2.505191
396.000 2.505191
396.100 2.496292
396.200 2.479976
396.300 2.442895
396.400 2.393948
396.500 2.353901
396.600 2.248591
396.700 2.003856
396.800 1.720558
396.900 1.655295
397.000 1.751706
397.100 1.908929
397.200 2.070602
397.300 2.221893
397.400 2.299021
397.500 2.355384
397.600 2.396915
397.700 2.408781
397.800 2.416197
397.900 2.438446
398.000 2.447345
398.100 2.460694
398.200 2.468110
398.300 2.459211
398.400 2.450311
398.500 2.450311
398.600 2.398398
398.700 2.327203
398.800 2.431029
398.900 2.462177
399.000 2.475527
399.100 2.481460
399.200 2.481460
399.300 2.475527
399.400 2.466627
399.500 2.468110
399.600 2.462177
399.700 2.462177
399.800 2.465144
399.900 2.466627
400.000 2.441412
400.100 2.431029
400.200 2.433996
400.300 2.433996
400.400 2.432513
400.500 2.438446
400.600 2.439929
400.700 2.435479
400.800 2.436962
400.900 2.432513
401.000 2.423613
401.100 2.433996
401.200 2.445862
401.300 2.444379
401.400 2.444379
401.500 2.439929
401.600 2.433996
401.700 2.441412
401.800 2.450311
401.900 2.453278
402.000 2.444379
402.100 2.429546
402.200 2.428063
402.300 2.398398
402.400 2.331652
402.500 2.270840
402.600 2.250074
402.700 2.296055
402.800 2.359834
402.900 2.408781
403.000 2.435479
403.100 2.444379
403.200 2.442895
403.300 2.439929
403.400 2.438446
403.500 2.445862
403.600 2.445862
403.700 2.435479
403.800 2.428063
403.900 2.416197
404.000 2.425096
404.100 2.444379
404.200 2.441412
404.300 2.433996
404.400 2.431029
404.500 2.428063
404.600 2.426580
404.700 2.431029
404.800 2.438446
404.900 2.438446
405.000 2.428063
405.100 2.429546
405.200 2.445862
405.300 2.441412
405.400 2.444379
405.500 2.450311
405.600 2.441412
405.700 2.436962
405.800 2.436962
405.900 2.433996
406.000 2.431029
406.100 2.419163
406.200 2.410264
406.300 2.414714
406.400 2.353901
406.500 2.208543
406.600 2.250074
406.700 2.313853
406.800 2.312370
406.900 2.301988
407.000 2.293088
407.100 2.301988
407.200 2.318303
407.300 2.306437
407.400 2.304954
407.500 2.304954
407.600 2.297538
407.700 2.299021
407.800 2.307920
407.900 2.318303
408.000 2.324236
408.100 2.319786
408.200 2.313853
408.300 2.315337
408.400 2.297538
408.500 2.296055
408.600 2.288638
408.700 2.293088
408.800 2.296055
408.900 2.287155
409.000 2.269356
409.100 2.267873
409.200 2.273806
409.300 2.256007
409.400 2.223376
409.500 2.167013
409.600 2.118066
409.700 2.067636
409.800 1.991991
409.900 1.882231
410.000 1.763572
410.100 1.664195
410.200 1.646396
410.300 1.742806
410.400 1.917829
410.500 2.046870
410.600 2.122516
410.700 2.158113
410.800 2.189261
410.900 2.207060
411.000 2.220409
411.100 2.235242
411.200 2.242658
411.300 2.242658
411.400 2.256007
411.500 2.272323
411.600 2.276772
411.700 2.264907
411.800 2.239691
411.900 2.233759
412.000 2.241175
412.100 2.244141
412.200 2.247108
412.300 2.253041
412.400 2.256007
412.500 2.260457
412.600 2.263423
412.700 2.260457
412.800 2.247108
412.900 2.253041
413.000 2.260457
413.100 2.263423
413.200 2.256007
413.300 2.244141
413.400 2.244141
413.500 2.253041
413.600 2.253041
413.700 2.254524
413.800 2.260457
