# Wavelength (nm)   F_lamA (normalized erg/cm2/s/A)9.100 0.000022
9.400 0.000033
9.600 0.000043
9.800 0.000055
10.000 0.000069
10.200 0.000087
10.400 0.000107
10.600 0.000131
10.800 0.000159
11.000 0.000192
11.400 0.000272
11.800 0.000375
12.100 0.000469
12.500 0.000620
12.700 0.000707
12.800 0.000753
13.100 0.000906
13.200 0.000961
13.400 0.001078
13.700 0.001270
14.000 0.001484
14.300 0.001721
14.700 0.002070
15.100 0.002459
15.500 0.002888
15.900 0.003358
16.200 0.003736
16.600 0.004273
17.000 0.004847
17.300 0.005300
17.700 0.005932
18.000 0.006427
18.200 0.006767
18.600 0.007464
19.100 0.008373
19.400 0.008934
19.800 0.009699
20.200 0.010479
20.500 0.011073
21.000 0.012077
21.600 0.013296
22.000 0.014113
22.300 0.014731
22.700 0.015548
23.000 0.139679
23.400 0.138494
24.000 0.137441
24.600 0.137177
25.200 0.136256
25.700 0.130068
26.000 0.132701
26.400 0.132701
26.900 0.130437
27.400 0.128344
27.900 0.125158
28.400 0.123644
29.000 0.120629
29.600 0.116364
30.100 0.108886
30.800 0.107227
31.800 0.106464
32.800 0.102238
33.800 0.097643
34.800 0.093312
35.700 0.090087
36.600 0.087046
37.500 0.083597
38.500 0.079200
39.500 0.076593
40.500 0.073697
41.400 0.070906
42.200 0.068299
43.000 0.065969
44.100 0.063336
45.100 0.060742
46.000 0.058307
47.000 0.055937
48.000 0.053857
49.000 0.051488
50.000 0.049724
50.600 0.049645
51.200 0.051277
52.000 0.049631
53.000 0.047788
54.000 0.045405
55.000 0.043813
56.000 0.042996
57.000 0.041561
58.000 0.039903
59.000 0.038731
60.000 0.037217
61.000 0.035782
62.000 0.035018
63.000 0.033794
64.000 0.032820
65.000 0.031701
65.800 0.030727
66.500 0.030253
67.500 0.029410
68.500 0.028239
69.500 0.027646
70.500 0.026527
71.600 0.025974
72.600 0.025263
73.500 0.024618
74.500 0.023868
75.500 0.023170
76.500 0.022407
77.500 0.021906
78.500 0.021288
79.500 0.020735
80.500 0.020221
81.500 0.019721
82.500 0.019247
83.500 0.018470
84.500 0.018260
85.500 0.017786
86.500 0.017404
87.500 0.016983
88.500 0.016575
89.500 0.016180
90.500 0.015732
91.500 0.018549
92.500 0.026632
93.500 0.034426
94.500 0.046156
95.500 0.050079
96.500 0.055977
97.500 0.037243
98.500 0.055700
99.500 0.053133
100.500 0.054950
101.500 0.052106
102.500 0.034979
103.500 0.048170
104.500 0.052857
105.500 0.051909
106.500 0.049131
107.500 0.049592
108.500 0.046445
109.500 0.048341
110.500 0.046788
111.500 0.046077
112.500 0.044036
113.500 0.044550
114.500 0.043009
115.500 0.042601
116.500 0.042009
117.500 0.038007
118.500 0.039837
119.500 0.037493
120.500 0.034439
121.500 0.023354
122.500 0.033544
123.500 0.035637
124.500 0.035650
125.500 0.035413
126.500 0.034702
127.500 0.034755
128.500 0.034452
129.500 0.033320
130.500 0.033294
131.500 0.034268
132.500 0.034439
133.500 0.034597
134.500 0.036269
135.500 0.036704
136.500 0.037915
137.500 0.039218
138.500 0.040508
139.500 0.041338
140.500 0.042114
141.500 0.046130
142.500 0.046327
143.500 0.047459
144.200 0.051764
144.700 0.049566
145.500 0.054858
146.500 0.052080
147.500 0.055674
148.500 0.057873
149.500 0.060203
150.500 0.065047
151.200 0.066390
151.700 0.063296
152.500 0.068549
153.500 0.073697
154.500 0.074763
155.500 0.083096
156.500 0.081517
157.500 0.095524
158.500 0.106754
159.500 0.112098
160.500 0.101382
161.500 0.117707
162.500 0.117733
163.500 0.123552
164.500 0.147709
165.500 0.124078
166.500 0.169695
167.200 0.152185
167.700 0.174961
168.500 0.187467
169.500 0.183518
170.500 0.190232
171.500 0.204845
172.500 0.205635
173.500 0.218536
174.500 0.216430
175.500 0.228936
176.500 0.209847
177.500 0.227488
178.500 0.231438
179.500 0.245919
180.500 0.266456
181.500 0.268299
182.500 0.259347
183.500 0.268036
184.500 0.248420
185.500 0.262375
186.500 0.274092
187.500 0.275145
188.500 0.278173
189.500 0.285940
190.500 0.279884
191.500 0.291206
192.500 0.298052
193.500 0.282780
194.500 0.306740
195.500 0.308715
196.700 0.320563
197.600 0.312665
198.400 0.312928
199.500 0.313718
200.500 0.304502
201.500 0.310427
202.500 0.295682
203.500 0.322143
204.500 0.333728
205.500 0.328331
206.500 0.327409
207.400 0.348078
207.800 0.349131
208.500 0.347946
209.500 0.341496
210.500 0.337546
211.500 0.347156
212.500 0.348078
213.500 0.330700
214.500 0.353081
215.500 0.350184
216.500 0.337414
217.500 0.339916
218.500 0.352291
219.500 0.373354
220.500 0.363876
221.500 0.346630
222.500 0.357952
223.500 0.388362
224.500 0.371116
225.500 0.355845
226.500 0.346498
227.500 0.369142
228.500 0.379147
229.500 0.362559
230.500 0.379542
231.500 0.381122
232.500 0.349131
233.500 0.371380
234.500 0.336361
235.500 0.389284
236.500 0.351369
237.500 0.377172
238.500 0.327409
239.500 0.361769
240.500 0.357162
241.500 0.362428
242.500 0.400869
243.500 0.391654
244.500 0.406925
245.500 0.405477
246.500 0.405213
247.500 0.387967
248.500 0.381385
249.500 0.379674
250.500 0.424434
251.300 0.385729
251.800 0.362954
252.500 0.353344
253.500 0.366509
254.500 0.371643
255.500 0.407715
256.500 0.405740
257.500 0.431806
258.500 0.433123
259.500 0.428252
260.500 0.414429
261.500 0.401395
262.500 0.433649
263.500 0.451027
264.500 0.502238
265.500 0.513428
266.500 0.482886
267.500 0.502896
268.500 0.516061
269.500 0.486309
270.500 0.496577
271.500 0.466956
272.500 0.470379
273.500 0.491311
274.500 0.431280
275.500 0.455766
276.500 0.490785
277.500 0.510400
278.500 0.489336
279.500 0.330305
280.500 0.376514
281.500 0.533834
282.500 0.540416
283.500 0.532385
284.500 0.516719
285.500 0.465377
286.500 0.529621
287.500 0.533439
288.500 0.542917
289.500 0.548315
291.000 0.578857
293.000 0.570695
295.000 0.564771
297.000 0.570037
299.000 0.578462
301.000 0.582675
303.000 0.588336
305.000 0.597288
307.000 0.595182
309.000 0.596367
311.000 0.598605
313.000 0.599658
315.000 0.601896
317.000 0.611901
319.000 0.592680
321.000 0.610058
323.000 0.598078
325.000 0.624934
327.000 0.647578
329.000 0.650211
331.000 0.652712
332.200 0.565956
332.300 0.529621
332.400 0.522249
332.500 0.536072
332.600 0.540548
332.700 0.533570
332.800 0.535940
332.900 0.541338
333.000 0.559242
333.100 0.574513
333.200 0.572670
333.300 0.577014
333.400 0.563849
333.500 0.553318
333.600 0.542259
333.700 0.535545
333.800 0.548710
333.900 0.558057
334.000 0.561216
334.100 0.562401
334.200 0.556082
334.300 0.567799
334.400 0.583070
334.500 0.584650
334.600 0.578462
334.700 0.550553
334.800 0.524750
334.900 0.508952
335.000 0.526856
335.100 0.536730
335.200 0.529884
335.300 0.532517
335.400 0.547788
335.500 0.576488
335.600 0.578199
335.700 0.556609
335.800 0.509215
335.900 0.465113
336.000 0.438257
336.100 0.450500
336.200 0.480516
336.300 0.520011
336.400 0.547657
336.500 0.539626
336.600 0.530147
336.700 0.526593
336.800 0.523828
336.900 0.522380
337.000 0.489468
337.100 0.459189
337.200 0.452212
337.300 0.473670
337.400 0.506846
337.500 0.540416
337.600 0.555161
337.700 0.552528
337.800 0.536598
337.900 0.521327
338.000 0.522380
338.100 0.530016
338.200 0.532780
338.300 0.537125
338.400 0.546867
338.500 0.560558
338.600 0.556609
338.700 0.532780
338.800 0.515534
338.900 0.535677
339.000 0.557794
339.100 0.572670
339.200 0.558452
339.300 0.537256
339.400 0.540943
339.500 0.554239
339.600 0.578331
339.700 0.593075
339.800 0.603081
339.900 0.605977
340.000 0.601369
340.100 0.589258
340.200 0.566219
340.300 0.557399
340.400 0.548052
340.500 0.556740
340.600 0.561611
340.700 0.555161
340.800 0.537388
340.900 0.535677
341.000 0.556609
341.100 0.556214
341.200 0.550026
341.300 0.534360
341.400 0.532254
341.500 0.553844
341.600 0.571222
341.700 0.580305
341.800 0.584913
341.900 0.585835
342.000 0.589389
342.100 0.589916
342.200 0.573065
342.300 0.551606
342.400 0.544629
342.500 0.551606
342.600 0.558452
342.700 0.570432
342.800 0.592417
342.900 0.613612
343.000 0.625724
343.100 0.606108
343.200 0.582412
343.300 0.567536
343.400 0.578726
343.500 0.603212
343.600 0.607952
343.700 0.593734
343.800 0.574513
343.900 0.558057
344.000 0.548447
344.100 0.534097
344.200 0.525145
344.300 0.523433
344.400 0.530411
344.500 0.543444
344.600 0.565166
344.700 0.595445
344.800 0.614271
344.900 0.623749
345.000 0.603870
345.100 0.574776
345.200 0.553186
345.300 0.549763
345.400 0.560690
345.500 0.571617
345.600 0.576883
345.700 0.580700
345.800 0.578331
345.900 0.571353
346.000 0.553976
346.100 0.541732
346.200 0.553054
346.300 0.561480
346.400 0.570432
346.500 0.561743
346.600 0.560427
346.700 0.576883
346.800 0.600053
346.900 0.617430
347.000 0.623749
347.100 0.614929
347.200 0.602422
347.300 0.574513
347.400 0.552001
347.500 0.543444
347.600 0.545550
347.700 0.571880
347.800 0.595182
347.900 0.607030
348.000 0.617299
348.100 0.615456
348.200 0.609005
348.300 0.604660
348.400 0.601369
348.500 0.608873
348.600 0.622828
348.700 0.622301
348.800 0.611374
348.900 0.591364
349.000 0.575171
349.100 0.585045
349.200 0.602422
349.300 0.602554
349.400 0.596630
349.500 0.586098
349.600 0.574513
349.700 0.577672
349.800 0.573460
349.900 0.575566
350.000 0.576619
350.100 0.575829
350.200 0.585835
350.300 0.590179
350.400 0.590969
350.500 0.582412
350.600 0.574381
350.700 0.571222
350.800 0.564903
350.900 0.570432
351.000 0.573196
351.100 0.573723
351.200 0.567536
351.300 0.560032
351.400 0.563718
351.500 0.576883
351.600 0.604792
351.700 0.625461
351.800 0.626514
351.900 0.604397
352.000 0.586756
352.100 0.577409
352.200 0.572012
352.300 0.563454
352.400 0.549236
352.500 0.540943
352.600 0.549368
352.700 0.563586
352.800 0.581622
352.900 0.597288
353.000 0.609795
353.100 0.620326
353.200 0.615061
353.300 0.590837
353.400 0.574908
353.500 0.569379
353.600 0.591496
353.700 0.623749
353.800 0.638757
353.900 0.644813
354.000 0.639284
354.100 0.632833
354.200 0.630858
354.300 0.640337
354.400 0.649947
354.500 0.646393
354.600 0.639942
354.700 0.630463
354.800 0.624671
354.900 0.627830
355.000 0.639152
355.100 0.652844
355.200 0.647446
355.300 0.627962
355.400 0.613349
355.500 0.615192
355.600 0.626777
355.700 0.644286
355.800 0.655477
355.900 0.655082
356.000 0.649816
356.100 0.646261
356.200 0.639810
356.300 0.626646
356.400 0.606503
356.500 0.587283
356.600 0.581490
356.700 0.585440
356.800 0.587546
356.900 0.585176
357.000 0.573065
357.100 0.560163
357.200 0.557267
357.300 0.559242
357.400 0.566219
357.500 0.577409
357.600 0.588336
357.700 0.597683
357.800 0.605714
357.900 0.601501
358.000 0.587151
358.100 0.571353
358.200 0.561085
358.300 0.563060
358.400 0.558847
358.500 0.543707
358.600 0.522775
358.700 0.512375
358.800 0.526198
358.900 0.556214
359.000 0.582543
359.100 0.593997
359.200 0.590837
359.300 0.588468
359.400 0.593602
359.500 0.610453
359.600 0.624934
359.700 0.631253
359.800 0.629410
359.900 0.626909
360.000 0.626119
360.100 0.613086
360.200 0.602291
360.300 0.598210
360.400 0.606108
360.500 0.610848
360.600 0.605977
360.700 0.597551
360.800 0.590047
360.900 0.589784
361.000 0.588994
361.100 0.592417
361.200 0.601764
361.300 0.608873
361.400 0.617562
361.500 0.640074
361.600 0.643365
361.700 0.632043
361.800 0.610321
361.900 0.589784
362.000 0.598473
362.100 0.615324
362.200 0.628094
362.300 0.635071
362.400 0.641127
362.500 0.658504
362.600 0.680095
362.700 0.698789
362.800 0.692865
362.900 0.666403
363.000 0.626119
363.100 0.602686
363.200 0.608478
363.300 0.629410
363.400 0.639152
363.500 0.634939
363.600 0.633491
363.700 0.647051
363.800 0.662849
363.900 0.671011
364.000 0.671933
364.100 0.664560
364.200 0.651395
364.300 0.641259
364.400 0.634413
364.500 0.630858
364.600 0.628357
364.700 0.627435
364.800 0.627699
364.900 0.624539
365.000 0.623354
365.100 0.625987
365.200 0.639547
365.300 0.654423
365.400 0.671406
365.500 0.687072
365.600 0.697472
365.700 0.702212
365.800 0.699579
365.900 0.698131
366.000 0.697736
366.100 0.686546
366.200 0.674566
366.300 0.666403
366.400 0.668378
366.500 0.676672
366.600 0.678910
366.700 0.677067
366.800 0.667457
366.900 0.658373
367.000 0.657320
367.100 0.663507
367.200 0.674039
367.300 0.681280
367.400 0.680095
367.500 0.674302
367.600 0.657715
367.700 0.637704
367.800 0.625724
367.900 0.627830
368.000 0.636519
368.100 0.641259
368.200 0.644550
368.300 0.645076
368.400 0.645735
368.500 0.635729
368.600 0.629410
368.700 0.633886
368.800 0.655477
368.900 0.679700
369.000 0.680753
369.100 0.675224
369.200 0.670484
369.300 0.674829
369.400 0.682991
369.500 0.689310
369.600 0.684702
369.700 0.669036
369.800 0.679042
369.900 0.701817
370.000 0.729331
370.100 0.729331
370.200 0.688784
370.300 0.639547
370.400 0.603081
370.500 0.597946
370.600 0.611901
370.700 0.637309
370.800 0.656003
370.900 0.656398
371.000 0.634676
371.100 0.611638
371.200 0.606635
371.300 0.632175
371.400 0.682596
371.500 0.724197
371.600 0.751580
371.700 0.758820
371.800 0.740126
371.900 0.686019
372.000 0.610453
372.100 0.550421
372.200 0.543576
372.300 0.580437
372.400 0.655477
372.500 0.707873
372.600 0.736045
372.700 0.747235
372.800 0.754344
372.900 0.757109
373.000 0.752896
373.100 0.721827
373.200 0.649552
373.300 0.573196
373.400 0.515271
373.500 0.501711
373.600 0.542259
373.700 0.607820
373.800 0.673117
373.900 0.738547
374.000 0.777909
374.100 0.795419
374.200 0.782385
374.300 0.764218
374.400 0.737888
374.500 0.709452
374.600 0.682596
374.700 0.648894
374.800 0.599921
374.900 0.557662
375.000 0.535808
375.100 0.559110
375.200 0.609005
375.300 0.696288
375.400 0.755924
375.500 0.791206
375.600 0.802791
375.700 0.788573
375.800 0.771854
375.900 0.764218
376.000 0.765008
376.100 0.781991
376.200 0.795024
376.300 0.794629
376.400 0.786203
376.500 0.765534
376.600 0.743418
376.700 0.710506
376.800 0.655082
376.900 0.601632
377.000 0.554766
377.100 0.562533
377.200 0.609531
377.300 0.675487
377.400 0.726040
377.500 0.762507
377.600 0.779884
377.700 0.805556
377.800 0.837283
377.900 0.869273
378.000 0.902712
378.100 0.916667
378.200 0.917325
378.300 0.910742
378.400 0.905477
378.500 0.893628
378.600 0.880990
378.700 0.856898
378.800 0.839916
378.900 0.832807
379.000 0.828989
379.100 0.822012
379.200 0.800290
379.300 0.770669
379.400 0.724592
379.500 0.666930
379.600 0.604529
379.700 0.543181
379.800 0.520142
379.900 0.553976
380.000 0.632175
380.100 0.710374
380.200 0.776856
380.300 0.808715
380.400 0.838336
380.500 0.847815
380.600 0.855714
380.700 0.869537
380.800 0.891785
380.900 0.920221
381.000 0.939968
381.100 0.944839
381.200 0.922854
381.300 0.897183
381.400 0.875856
381.500 0.875197
381.600 0.892180
381.700 0.914824
381.800 0.922986
381.900 0.900474
382.000 0.876777
382.100 0.866772
382.200 0.873354
382.300 0.870458
382.400 0.844392
382.500 0.817141
382.600 0.795024
382.700 0.779226
382.800 0.756846
382.900 0.739863
383.000 0.721827
383.100 0.686414
383.200 0.645735
383.300 0.573723
383.400 0.515929
383.500 0.485782
383.600 0.496314
383.700 0.531991
383.800 0.589258
383.900 0.635861
384.000 0.682596
384.100 0.732359
384.200 0.778568
384.300 0.829252
384.400 0.860848
384.500 0.882833
384.600 0.902449
384.700 0.923776
384.800 0.936282
384.900 0.933649
385.000 0.931675
385.100 0.945234
385.200 0.971301
385.300 0.993944
385.400 0.996051
385.500 0.983939
385.600 0.967878
385.700 0.955766
385.800 0.942338
385.900 0.939179
386.000 0.951685
386.100 0.973012
386.200 0.989468
386.300 0.998157
386.400 0.994207
386.500 0.986309
386.600 0.985914
386.700 0.990126
386.800 0.994734
386.900 0.993023
387.000 0.978015
387.100 0.958662
387.200 0.930621
387.300 0.917193
387.400 0.913639
387.500 0.920616
387.600 0.917062
387.700 0.890995
387.800 0.866245
387.900 0.850843
388.000 0.856240
388.100 0.855582
388.200 0.836230
388.300 0.812270
388.400 0.773170
388.500 0.728805
388.600 0.667588
388.700 0.593997
388.800 0.540284
388.900 0.528568
389.000 0.564508
389.100 0.635861
389.200 0.699315
389.300 0.737625
389.400 0.766061
389.500 0.789231
389.600 0.822407
389.700 0.845972
389.800 0.864271
389.900 0.874144
390.000 0.885729
390.100 0.904160
390.200 0.912059
390.300 0.920221
390.400 0.914955
390.500 0.914297
390.600 0.926014
390.700 0.951290
390.800 0.985255
390.900 1.011848
391.000 1.026593
391.100 1.029884
391.200 1.028304
391.300 1.020142
391.400 1.007767
391.500 1.004081
391.600 1.007767
391.700 1.007767
391.800 1.000658
391.900 0.991180
392.000 0.987493
392.100 0.987230
392.200 0.990653
392.300 0.998552
392.400 0.999342
392.500 0.994076
392.600 0.968931
392.700 0.935097
392.800 0.889415
392.900 0.834781
393.000 0.763428
393.100 0.656003
393.200 0.533175
393.300 0.441417
393.400 0.425487
393.500 0.512902
393.600 0.638889
393.700 0.756056
393.800 0.852027
393.900 0.909031
394.000 0.944313
394.100 0.964718
394.200 0.971432
394.300 0.968668
394.400 0.971696
394.500 0.977751
394.600 0.988415
394.700 0.992233
394.800 0.986309
394.900 0.976567
395.000 0.970247
395.100 0.965903
395.200 0.962480
395.300 0.970511
395.400 0.968931
395.500 0.960111
395.600 0.945498
395.700 0.928647
395.800 0.926277
395.900 0.918115
396.000 0.891785
396.100 0.858215
396.200 0.814639
396.300 0.775540
396.400 0.729989
396.500 0.654687
396.600 0.554897
396.700 0.428778
396.800 0.339126
396.900 0.304502
397.000 0.352686
397.100 0.447867
397.200 0.558057
397.300 0.640600
397.400 0.715113
397.500 0.766456
397.600 0.815561
397.700 0.851896
397.800 0.884018
397.900 0.913375
398.000 0.926804
398.100 0.936019
398.200 0.944576
398.300 0.958268
398.400 0.975645
398.500 0.992759
398.600 1.008162
398.700 1.022380
398.800 1.038968
398.900 1.042917
399.000 1.045024
399.100 1.051211
399.200 1.059110
399.300 1.072143
399.400 1.075961
399.500 1.070432
399.600 1.052001
399.700 1.040284
399.800 1.041074
399.900 1.058847
400.000 1.074118
400.100 1.084781
400.200 1.086756
400.300 1.079779
400.400 1.065166
400.500 1.051343
400.600 1.053976
400.700 1.069642
400.800 1.091759
400.900 1.104397
401.000 1.109795
401.100 1.108873
401.200 1.103870
401.300 1.100843
401.400 1.101501
401.500 1.109795
401.600 1.115982
401.700 1.120326
401.800 1.126514
401.900 1.131648
402.000 1.136651
402.100 1.134150
402.200 1.127830
402.300 1.120458
402.400 1.113349
402.500 1.114797
402.600 1.123881
402.700 1.139152
402.800 1.139547
402.900 1.129015
403.000 1.106898
403.100 1.091232
403.200 1.084255
403.300 1.087546
403.400 1.098341
403.500 1.115850
403.600 1.134808
403.700 1.155740
403.800 1.161269
403.900 1.156135
404.000 1.148236
404.100 1.142180
404.200 1.141785
404.300 1.130990
404.400 1.101501
404.500 1.076619
404.600 1.069247
404.700 1.091627
404.800 1.120195
404.900 1.140337
405.000 1.142180
405.100 1.142048
405.200 1.135729
405.300 1.126646
405.400 1.118088
405.500 1.113481
405.600 1.114139
405.700 1.114271
405.800 1.118220
405.900 1.133360
406.000 1.141390
406.100 1.134413
406.200 1.105582
406.300 1.078331
406.400 1.065956
406.500 1.063718
406.600 1.070695
406.700 1.077014
406.800 1.079121
406.900 1.077278
407.000 1.067799
407.100 1.048447
407.200 1.039494
407.300 1.046340
407.400 1.054634
407.500 1.052396
407.600 1.028304
407.700 1.005924
407.800 0.995787
407.900 1.010927
408.000 1.035018
408.100 1.051869
408.200 1.052133
408.300 1.041864
408.400 1.029753
408.500 1.018167
408.600 1.019352
408.700 1.022643
408.800 1.026198
408.900 1.024355
409.000 1.011980
409.100 1.002765
409.200 0.994866
409.300 0.976830
409.400 0.957741
409.500 0.924566
409.600 0.896656
409.700 0.862559
409.800 0.818589
409.900 0.763165
410.000 0.676672
410.100 0.619142
410.200 0.604924
410.300 0.660742
410.400 0.736704
410.500 0.810427
410.600 0.851369
410.700 0.886519
410.800 0.905872
410.900 0.923907
411.000 0.942338
411.100 0.957873
411.200 0.978541
411.300 0.994076
411.400 1.011980
411.500 1.028436
411.600 1.035545
411.700 1.033834
411.800 1.027383
411.900 1.022643
412.000 1.026066
412.100 1.035808
412.200 1.047130
412.300 1.055029
412.400 1.062401
412.500 1.067009
412.600 1.068062
412.700 1.066877
412.800 1.067536
412.900 1.071353
413.000 1.069905
413.100 1.059637
413.200 1.048052
413.300 1.050026
413.400 1.065166
413.500 1.081622
413.600 1.095182
413.700 1.105977
413.800 1.117430
413.900 1.128225
414.000 1.127041
414.100 1.113612
414.200 1.092944
414.300 1.073591
414.400 1.072012
414.500 1.081227
414.600 1.097946
414.700 1.103344
414.800 1.105977
414.900 1.108478
415.000 1.110979
415.100 1.113876
415.200 1.109531
415.300 1.101632
415.400 1.093865
415.500 1.089389
