# Wavelength (nm)   F_lamA (normalized erg/cm2/s/A)9.100 0.000159
9.400 0.000202
9.600 0.000235
9.800 0.000272
10.000 0.000312
10.200 0.000355
10.400 0.000403
10.600 0.000453
10.800 0.000508
11.000 0.000567
11.400 0.000695
11.800 0.000839
12.100 0.000957
12.500 0.001126
12.700 0.001216
12.800 0.001262
13.100 0.001406
13.200 0.001455
13.400 0.001556
13.700 0.001713
14.000 0.001875
14.300 0.002043
14.700 0.002275
15.100 0.002514
15.500 0.002759
15.900 0.003010
16.200 0.003199
16.600 0.003455
17.000 0.003712
17.300 0.003906
17.700 0.004163
18.000 0.004355
18.200 0.004483
18.600 0.004736
19.100 0.005049
19.400 0.005232
19.800 0.005475
20.200 0.005711
20.500 0.005883
21.000 0.006164
21.600 0.006488
22.000 0.006694
22.300 0.006843
22.700 0.007037
23.000 0.039421
23.400 0.038676
24.000 0.037676
24.600 0.036803
25.200 0.035951
25.700 0.034781
26.000 0.034696
26.400 0.034440
26.900 0.033631
27.400 0.032801
27.900 0.031822
28.400 0.031205
29.000 0.030247
29.600 0.029119
30.100 0.027671
30.800 0.027011
31.800 0.026075
32.800 0.024755
33.800 0.023478
34.800 0.022286
35.700 0.021350
36.600 0.020492
37.500 0.019568
38.500 0.018499
39.500 0.017714
40.500 0.016920
41.400 0.016198
42.200 0.015553
43.000 0.014947
44.100 0.014249
45.100 0.013606
46.000 0.013016
47.000 0.012433
48.000 0.011909
49.000 0.011350
50.000 0.010905
50.600 0.010839
51.200 0.011147
52.000 0.010754
53.000 0.010300
54.000 0.009772
55.000 0.009406
56.000 0.009208
57.000 0.008878
58.000 0.008501
59.000 0.008227
60.000 0.007880
61.000 0.007578
62.000 0.007407
63.000 0.007135
64.000 0.006911
65.000 0.006662
65.800 0.006450
66.500 0.006339
67.500 0.006156
68.500 0.005896
69.500 0.005762
70.500 0.005517
71.600 0.005404
72.600 0.005243
73.500 0.005106
74.500 0.004940
75.500 0.004791
76.500 0.004630
77.500 0.004515
78.500 0.004387
79.500 0.004270
80.500 0.004157
81.500 0.004051
82.500 0.003951
83.500 0.003780
84.500 0.003744
85.500 0.003646
86.500 0.003567
87.500 0.003484
88.500 0.003401
89.500 0.003323
90.500 0.003235
91.500 0.003942
92.500 0.005647
93.500 0.007007
94.500 0.009530
95.500 0.021839
96.500 0.031865
97.500 0.010094
98.500 0.198851
99.500 0.517454
100.500 0.485951
101.500 0.106513
102.500 0.008329
103.500 0.073712
104.500 0.552150
105.500 1.079395
106.500 1.236058
107.500 1.464666
108.500 1.476586
109.500 1.515113
110.500 1.545338
111.500 1.516177
112.500 1.484461
113.500 1.514474
114.500 1.408897
115.500 1.329502
116.500 1.291188
117.500 1.091103
118.500 0.785015
119.500 0.280971
120.500 0.061175
121.500 0.009898
122.500 0.043870
123.500 0.317369
124.500 0.739676
125.500 1.038740
126.500 1.012559
127.500 1.325032
128.500 1.472116
129.500 1.483610
130.500 1.422733
131.500 1.563218
132.500 1.572371
133.500 1.558961
134.500 1.640060
135.500 1.581737
136.500 1.546828
137.500 1.571946
138.500 1.601745
139.500 1.606215
140.500 1.604300
141.500 1.564708
142.500 1.568966
143.500 1.523840
144.200 1.572371
144.700 1.577693
145.500 1.574287
146.500 1.533844
147.500 1.530438
148.500 1.525330
149.500 1.514900
150.500 1.527246
151.200 1.508514
151.700 1.520434
152.500 1.468710
153.500 1.441252
154.500 1.495317
155.500 1.443380
156.500 1.361218
157.500 1.404215
158.500 1.436569
159.500 1.465517
160.500 1.401660
161.500 1.405492
162.500 1.337590
163.500 1.351852
164.500 1.365900
165.500 1.257769
166.500 1.375266
167.200 1.282673
167.700 1.324606
168.500 1.359940
169.500 1.317582
170.500 1.297573
171.500 1.307365
172.500 1.286292
173.500 1.320136
174.500 1.287143
175.500 1.315453
176.500 1.236058
177.500 1.296935
178.500 1.275649
179.500 1.297786
180.500 1.297148
181.500 1.283951
182.500 1.261175
183.500 1.250319
184.500 1.214985
185.500 1.219029
186.500 1.214134
187.500 1.224138
188.500 1.216262
189.500 1.209238
190.500 1.199659
191.500 1.190507
192.500 1.190932
193.500 1.163048
194.500 1.192848
195.500 1.180715
196.700 1.184121
197.600 1.164538
198.400 1.158365
199.500 1.139634
200.500 1.123031
201.500 1.102384
202.500 1.097063
203.500 1.109621
204.500 1.113027
205.500 1.082588
206.500 1.078970
207.400 1.095785
207.800 1.097063
208.500 1.095147
209.500 1.076628
210.500 1.068753
211.500 1.065347
212.500 1.061303
213.500 1.022350
214.500 1.048106
215.500 1.037250
216.500 1.005960
217.500 1.001703
218.500 1.005960
219.500 1.030013
220.500 1.000426
221.500 0.968923
222.500 0.961047
223.500 1.003831
224.500 0.970839
225.500 0.945934
226.500 0.935079
227.500 0.960834
228.500 0.967220
229.500 0.937633
230.500 0.944019
231.500 0.934440
232.500 0.853129
233.500 0.910175
234.500 0.856535
235.500 0.907833
236.500 0.858025
237.500 0.884632
238.500 0.823755
239.500 0.862495
240.500 0.845679
241.500 0.851000
242.500 0.878672
243.500 0.855683
244.500 0.873138
245.500 0.865900
246.500 0.852065
247.500 0.835462
248.500 0.845253
249.500 0.829289
250.500 0.868029
251.300 0.830779
251.800 0.823755
252.500 0.796935
253.500 0.792465
254.500 0.795232
255.500 0.826096
256.500 0.817795
257.500 0.838868
258.500 0.838655
259.500 0.828650
260.500 0.809706
261.500 0.797573
262.500 0.814602
263.500 0.824181
264.500 0.871435
265.500 0.872499
266.500 0.841422
267.500 0.855470
268.500 0.859302
269.500 0.833972
270.500 0.836526
271.500 0.811622
272.500 0.810132
273.500 0.827799
274.500 0.765858
275.500 0.777352
276.500 0.802043
277.500 0.821201
278.500 0.803746
279.500 0.677097
280.500 0.717752
281.500 0.823968
282.500 0.826096
283.500 0.812899
284.500 0.798425
285.500 0.773308
286.500 0.804811
287.500 0.801192
288.500 0.805449
289.500 0.802682
291.000 0.824819
293.000 0.807578
295.000 0.800341
297.000 0.800553
299.000 0.799702
301.000 0.802256
303.000 0.799915
305.000 0.798851
307.000 0.792465
309.000 0.791826
311.000 0.785866
313.000 0.780758
315.000 0.779055
317.000 0.779481
319.000 0.761601
321.000 0.769476
323.000 0.757344
325.000 0.767986
327.000 0.775223
329.000 0.773308
331.000 0.772031
332.200 0.720519
332.300 0.716049
332.400 0.716262
332.500 0.714347
332.600 0.708174
332.700 0.696254
332.800 0.702427
332.900 0.709877
333.000 0.721158
333.100 0.735632
333.200 0.740102
333.300 0.739889
333.400 0.727969
333.500 0.719668
333.600 0.704768
333.700 0.692422
333.800 0.700724
333.900 0.704555
334.000 0.704768
334.100 0.702214
334.200 0.697957
334.300 0.713921
334.400 0.731375
334.500 0.733078
334.600 0.725628
334.700 0.709025
334.800 0.688591
334.900 0.674330
335.000 0.678587
335.100 0.687527
335.200 0.695402
335.300 0.700937
335.400 0.705194
335.500 0.708174
335.600 0.707322
335.700 0.706045
335.800 0.690932
335.900 0.675181
336.000 0.660920
336.100 0.660707
336.200 0.670924
336.300 0.681567
336.400 0.687739
336.500 0.681992
336.600 0.676884
336.700 0.672840
336.800 0.672414
336.900 0.675607
337.000 0.669221
337.100 0.662410
337.200 0.649212
337.300 0.651980
337.400 0.666454
337.500 0.686037
337.600 0.701149
337.700 0.699234
337.800 0.686675
337.900 0.676671
338.000 0.675607
338.100 0.682418
338.200 0.690507
338.300 0.703065
338.400 0.702427
338.500 0.703491
338.600 0.697957
338.700 0.686462
338.800 0.682205
338.900 0.693912
339.000 0.706471
339.100 0.717327
339.200 0.710302
339.300 0.695189
339.400 0.697318
339.500 0.707748
339.600 0.724989
339.700 0.733716
339.800 0.734781
339.900 0.725202
340.000 0.712431
340.100 0.704342
340.200 0.693699
340.300 0.692635
340.400 0.691358
340.500 0.695189
340.600 0.688804
340.700 0.680289
340.800 0.681354
340.900 0.684547
341.000 0.692848
341.100 0.690294
341.200 0.688804
341.300 0.695189
341.400 0.700511
341.500 0.703491
341.600 0.700511
341.700 0.699234
341.800 0.706258
341.900 0.713069
342.000 0.718391
342.100 0.717327
342.200 0.708174
342.300 0.701362
342.400 0.698595
342.500 0.699659
342.600 0.701362
342.700 0.707535
342.800 0.716262
342.900 0.724777
343.000 0.722648
343.100 0.709877
343.200 0.701788
343.300 0.698595
343.400 0.707961
343.500 0.716901
343.600 0.717752
343.700 0.713708
343.800 0.707748
343.900 0.703917
344.000 0.697318
344.100 0.683695
344.200 0.674968
344.300 0.668370
344.400 0.669647
344.500 0.683057
344.600 0.702214
344.700 0.719455
344.800 0.732226
344.900 0.740528
345.000 0.722435
345.100 0.697105
345.200 0.683269
345.300 0.679438
345.400 0.690081
345.500 0.691145
345.600 0.684334
345.700 0.684121
345.800 0.682205
345.900 0.682205
346.000 0.678587
346.100 0.677097
346.200 0.682631
346.300 0.693274
346.400 0.694338
346.500 0.687952
346.600 0.688165
346.700 0.697531
346.800 0.702852
346.900 0.713069
347.000 0.721797
347.100 0.720519
347.200 0.710089
347.300 0.689017
347.400 0.677948
347.500 0.670924
347.600 0.674755
347.700 0.688165
347.800 0.695615
347.900 0.700937
348.000 0.709238
348.100 0.707748
348.200 0.703065
348.300 0.697957
348.400 0.697105
348.500 0.707961
348.600 0.719668
348.700 0.721797
348.800 0.712431
348.900 0.699659
349.000 0.689868
349.100 0.692209
349.200 0.698595
349.300 0.700298
349.400 0.697957
349.500 0.688591
349.600 0.679651
349.700 0.679864
349.800 0.683908
349.900 0.692848
350.000 0.691145
350.100 0.685185
350.200 0.686462
350.300 0.688591
350.400 0.690294
350.500 0.684759
350.600 0.681141
350.700 0.682205
350.800 0.678587
350.900 0.678587
351.000 0.685824
351.100 0.693699
351.200 0.696467
351.300 0.693274
351.400 0.687101
351.500 0.687101
351.600 0.691997
351.700 0.699021
351.800 0.699447
351.900 0.690932
352.000 0.684759
352.100 0.681992
352.200 0.681141
352.300 0.681992
352.400 0.677522
352.500 0.674755
352.600 0.683695
352.700 0.693699
352.800 0.706471
352.900 0.718604
353.000 0.726266
353.100 0.727756
353.200 0.724777
353.300 0.712218
353.400 0.702214
353.500 0.694551
353.600 0.693061
353.700 0.698382
353.800 0.700937
353.900 0.704555
354.000 0.703704
354.100 0.700085
354.200 0.701575
354.300 0.710515
354.400 0.713069
354.500 0.710728
354.600 0.706684
354.700 0.703704
354.800 0.707109
354.900 0.707748
355.000 0.709451
355.100 0.712644
355.200 0.709877
355.300 0.702001
355.400 0.697105
355.500 0.702001
355.600 0.708599
355.700 0.717327
355.800 0.718604
355.900 0.716475
356.000 0.714134
356.100 0.713708
356.200 0.715198
356.300 0.708599
356.400 0.697105
356.500 0.684972
356.600 0.681567
356.700 0.683269
356.800 0.682418
356.900 0.680502
357.000 0.674968
357.100 0.669647
357.200 0.664325
357.300 0.661558
357.400 0.664751
357.500 0.669434
357.600 0.674755
357.700 0.679012
357.800 0.681567
357.900 0.680077
358.000 0.679012
358.100 0.677309
358.200 0.678587
358.300 0.679225
358.400 0.668582
358.500 0.655172
358.600 0.640485
358.700 0.636015
358.800 0.643465
358.900 0.659855
359.000 0.670711
359.100 0.674542
359.200 0.672627
359.300 0.671775
359.400 0.672627
359.500 0.679012
359.600 0.685611
359.700 0.686888
359.800 0.687527
359.900 0.690932
360.000 0.691358
360.100 0.683269
360.200 0.677309
360.300 0.672840
360.400 0.671988
360.500 0.674330
360.600 0.676458
360.700 0.672840
360.800 0.668582
360.900 0.669008
361.000 0.670072
361.100 0.673904
361.200 0.676458
361.300 0.677735
361.400 0.680715
361.500 0.688378
361.600 0.691571
361.700 0.690719
361.800 0.685611
361.900 0.678161
362.000 0.678799
362.100 0.680502
362.200 0.685398
362.300 0.692848
362.400 0.695828
362.500 0.704129
362.600 0.713708
362.700 0.721158
362.800 0.718178
362.900 0.707535
363.000 0.690507
363.100 0.680928
363.200 0.683482
363.300 0.695615
363.400 0.703065
363.500 0.702639
363.600 0.699659
363.700 0.696467
363.800 0.696467
363.900 0.700511
364.000 0.703491
364.100 0.700511
364.200 0.691784
364.300 0.684547
364.400 0.681779
364.500 0.684972
364.600 0.683908
364.700 0.680502
364.800 0.679438
364.900 0.677522
365.000 0.678374
365.100 0.680715
365.200 0.688165
365.300 0.693699
365.400 0.699872
365.500 0.706045
365.600 0.710515
365.700 0.710941
365.800 0.709025
365.900 0.707748
366.000 0.704342
366.100 0.697318
366.200 0.694977
366.300 0.694338
366.400 0.697957
366.500 0.702427
366.600 0.702852
366.700 0.699234
366.800 0.693487
366.900 0.688591
367.000 0.689868
367.100 0.694764
367.200 0.701788
367.300 0.705619
367.400 0.702852
367.500 0.698169
367.600 0.686888
367.700 0.677309
367.800 0.672414
367.900 0.673904
368.000 0.677948
368.100 0.682205
368.200 0.684334
368.300 0.681141
368.400 0.674117
368.500 0.669008
368.600 0.664964
368.700 0.668370
368.800 0.685611
368.900 0.701788
369.000 0.705619
369.100 0.698382
369.200 0.693487
369.300 0.702001
369.400 0.713069
369.500 0.719455
369.600 0.703491
369.700 0.686888
369.800 0.696254
369.900 0.723074
370.000 0.759259
370.100 0.760536
370.200 0.731375
370.300 0.678799
370.400 0.647722
370.500 0.648148
370.600 0.680715
370.700 0.723074
370.800 0.749681
370.900 0.743934
371.000 0.700511
371.100 0.664112
371.200 0.636441
371.300 0.653257
371.400 0.702001
371.500 0.775862
371.600 0.825883
371.700 0.852490
371.800 0.837378
371.900 0.788208
372.000 0.700724
372.100 0.634951
372.200 0.600894
372.300 0.622393
372.400 0.691784
372.500 0.776075
372.600 0.840145
372.700 0.888676
372.800 0.910813
372.900 0.914432
373.000 0.893146
373.100 0.845040
373.200 0.750106
373.300 0.666880
373.400 0.588974
373.500 0.567476
373.600 0.600681
373.700 0.687314
373.800 0.776501
373.900 0.879097
374.000 0.945296
374.100 0.990209
374.200 1.005109
374.300 0.999361
374.400 0.972542
374.500 0.934440
374.600 0.877395
374.700 0.799276
374.800 0.719881
374.900 0.632822
375.000 0.587271
375.100 0.588335
375.200 0.641337
375.300 0.740954
375.400 0.846743
375.500 0.922095
375.600 0.981907
375.700 1.015964
375.800 1.035334
375.900 1.046828
376.000 1.054278
376.100 1.065560
376.200 1.067263
376.300 1.056407
376.400 1.035973
376.500 0.997020
376.600 0.932737
376.700 0.863346
376.800 0.764581
376.900 0.674542
377.000 0.598765
377.100 0.575777
377.200 0.606428
377.300 0.694338
377.400 0.777139
377.500 0.862708
377.600 0.938697
377.700 1.007876
377.800 1.082801
377.900 1.138570
378.000 1.192209
378.100 1.225628
378.200 1.247978
378.300 1.263304
378.400 1.269689
378.500 1.265858
378.600 1.255854
378.700 1.231801
378.800 1.203065
378.900 1.176032
379.000 1.138995
379.100 1.099404
379.200 1.043210
379.300 0.973393
379.400 0.894849
379.500 0.789059
379.600 0.696892
379.700 0.605151
379.800 0.565773
379.900 0.577905
380.000 0.657940
380.100 0.753938
380.200 0.863346
380.300 0.942529
380.400 1.018944
380.500 1.076628
380.600 1.124734
380.700 1.178799
380.800 1.222435
380.900 1.268412
381.000 1.304811
381.100 1.328438
381.200 1.329502
381.300 1.325032
381.400 1.315028
381.500 1.322265
381.600 1.335675
381.700 1.350362
381.800 1.353129
381.900 1.330353
382.000 1.309706
382.100 1.292039
382.200 1.285015
382.300 1.278203
382.400 1.244359
382.500 1.205619
382.600 1.160281
382.700 1.117710
382.800 1.072158
382.900 1.013836
383.000 0.956577
383.100 0.880800
383.200 0.801405
383.300 0.705407
383.400 0.613240
383.500 0.556194
383.600 0.545551
383.700 0.583227
383.800 0.659855
383.900 0.745849
384.000 0.828863
384.100 0.923372
384.200 1.003406
384.300 1.085994
384.400 1.149425
384.500 1.202001
384.600 1.250319
384.700 1.287143
384.800 1.318646
384.900 1.339293
385.000 1.357173
385.100 1.381226
385.200 1.406769
385.300 1.431460
385.400 1.439123
385.500 1.436994
385.600 1.431460
385.700 1.425074
385.800 1.427842
385.900 1.441252
386.000 1.453384
386.100 1.465943
386.200 1.475521
386.300 1.466794
386.400 1.456364
386.500 1.449553
386.600 1.450192
386.700 1.454236
386.800 1.454023
386.900 1.449979
387.000 1.433376
387.100 1.413155
387.200 1.383993
387.300 1.369093
387.400 1.360366
387.500 1.349510
387.600 1.330566
387.700 1.290975
387.800 1.253725
387.900 1.216262
388.000 1.186888
388.100 1.159217
388.200 1.110047
388.300 1.051724
388.400 0.980204
388.500 0.897190
388.600 0.808216
388.700 0.697105
388.800 0.616220
388.900 0.570243
389.000 0.589187
389.100 0.656450
389.200 0.753938
389.300 0.835249
389.400 0.916135
389.500 0.985100
389.600 1.054704
389.700 1.115368
389.800 1.161984
389.900 1.200511
390.000 1.231588
390.100 1.266071
390.200 1.302895
390.300 1.335675
390.400 1.356535
390.500 1.373776
390.600 1.395062
390.700 1.421456
390.800 1.452746
390.900 1.487867
391.000 1.506599
391.100 1.512559
391.200 1.510856
391.300 1.500213
391.400 1.495317
391.500 1.501703
391.600 1.518944
391.700 1.527884
391.800 1.530864
391.900 1.526607
392.000 1.523414
392.100 1.521286
392.200 1.521924
392.300 1.528736
392.400 1.531503
392.500 1.533206
392.600 1.525968
392.700 1.511281
392.800 1.485100
392.900 1.456364
393.000 1.420179
393.100 1.334185
393.200 1.236696
393.300 1.130694
393.400 1.089187
393.500 1.149000
393.600 1.269051
393.700 1.378033
393.800 1.448489
393.900 1.482546
394.000 1.500000
394.100 1.507876
394.200 1.509153
394.300 1.505534
394.400 1.501064
394.500 1.491699
394.600 1.483610
394.700 1.478927
394.800 1.466369
394.900 1.455300
395.000 1.442103
395.100 1.430609
395.200 1.421882
395.300 1.415070
395.400 1.404002
395.500 1.375053
395.600 1.347808
395.700 1.320136
395.800 1.293955
395.900 1.266071
396.000 1.221584
396.100 1.174117
396.200 1.116220
396.300 1.062580
396.400 0.999149
396.500 0.911452
396.600 0.813112
396.700 0.677735
396.800 0.568753
396.900 0.489783
397.000 0.477011
397.100 0.519157
397.200 0.612388
397.300 0.708387
397.400 0.810771
397.500 0.893997
397.600 0.970200
397.700 1.040656
397.800 1.097488
397.900 1.155172
398.000 1.196679
398.100 1.233716
398.200 1.269476
398.300 1.299063
398.400 1.330779
398.500 1.356960
398.600 1.378246
398.700 1.396977
398.800 1.413793
398.900 1.428693
399.000 1.441252
399.100 1.454874
399.200 1.465304
399.300 1.476160
399.400 1.484461
399.500 1.488931
399.600 1.489357
399.700 1.488293
399.800 1.487229
399.900 1.496807
400.000 1.505109
400.100 1.508940
400.200 1.510430
400.300 1.505109
400.400 1.501703
400.500 1.497446
400.600 1.496381
400.700 1.502767
400.800 1.515751
400.900 1.523414
401.000 1.523414
401.100 1.521286
401.200 1.521286
401.300 1.524053
401.400 1.525543
401.500 1.531928
401.600 1.542358
401.700 1.550447
401.800 1.557684
401.900 1.561090
402.000 1.560451
402.100 1.557684
402.200 1.553853
402.300 1.545551
402.400 1.534057
402.500 1.527246
402.600 1.523840
402.700 1.531928
402.800 1.537463
402.900 1.540656
403.000 1.541507
403.100 1.541933
403.200 1.544913
403.300 1.548957
403.400 1.553640
403.500 1.563857
403.600 1.572797
403.700 1.580034
403.800 1.579183
403.900 1.572158
404.000 1.563857
404.100 1.558323
404.200 1.558323
404.300 1.554917
404.400 1.537888
404.500 1.519583
404.600 1.507450
404.700 1.522563
404.800 1.543636
404.900 1.555981
405.000 1.558110
405.100 1.559600
405.200 1.555130
405.300 1.546616
405.400 1.538953
405.500 1.535973
405.600 1.539804
405.700 1.544274
405.800 1.544913
405.900 1.551086
406.000 1.555768
406.100 1.548531
406.200 1.530013
406.300 1.508940
406.400 1.498510
406.500 1.489357
406.600 1.490421
406.700 1.493827
406.800 1.490209
406.900 1.487441
407.000 1.478289
407.100 1.455087
407.200 1.439974
407.300 1.440613
407.400 1.443593
407.500 1.441039
407.600 1.422946
407.700 1.405492
407.800 1.393997
407.900 1.396552
408.000 1.406556
408.100 1.408046
408.200 1.404002
408.300 1.391230
408.400 1.375692
408.500 1.359302
408.600 1.342912
408.700 1.329928
408.800 1.315879
408.900 1.297573
409.000 1.269476
409.100 1.240315
409.200 1.213495
409.300 1.173478
409.400 1.132822
409.500 1.075351
409.600 1.013623
409.700 0.952533
409.800 0.873989
409.900 0.792039
410.000 0.695402
410.100 0.623883
410.200 0.592805
410.300 0.630055
410.400 0.706258
410.500 0.796296
410.600 0.872712
410.700 0.941677
410.800 1.002341
410.900 1.054066
411.000 1.104300
411.100 1.145168
411.200 1.185824
411.300 1.222648
411.400 1.253725
411.500 1.284802
411.600 1.309281
411.700 1.323755
411.800 1.334823
411.900 1.343550
412.000 1.353768
412.100 1.368242
412.200 1.380800
412.300 1.391869
412.400 1.403363
412.500 1.412516
412.600 1.416560
412.700 1.416560
412.800 1.415070
412.900 1.416135
413.000 1.415709
413.100 1.414645
413.200 1.416347
413.300 1.423585
413.400 1.441252
413.500 1.456790
413.600 1.466582
413.700 1.475309
413.800 1.481269
413.900 1.489144
414.000 1.491060
414.100 1.482120
414.200 1.469774
414.300 1.455939
414.400 1.455087
414.500 1.460834
414.600 1.472329
414.700 1.479779
414.800 1.482333
414.900 1.483823
415.000 1.486164
415.100 1.491060
415.200 1.490421
415.300 1.485951
415.400 1.480204
415.500 1.477011
