# Wavelength (nm)   F_lamA (normalized erg/cm2/s/A)9.100 0.000000
9.400 0.000000
9.600 0.000000
9.800 0.000000
10.000 0.000000
10.200 0.000000
10.400 0.000000
10.600 0.000000
10.800 0.000000
11.000 0.000000
11.400 0.000001
11.800 0.000002
12.100 0.000003
12.500 0.000005
12.700 0.000006
12.800 0.000006
13.100 0.000009
13.200 0.000010
13.400 0.000013
13.700 0.000017
14.000 0.000024
14.300 0.000028
14.700 0.000041
15.100 0.000058
15.500 0.000081
15.900 0.000116
16.200 0.000176
16.600 0.000229
17.000 0.000295
17.300 0.000357
17.700 0.000450
18.000 0.000532
18.200 0.000592
18.600 0.000724
19.100 0.000915
19.400 0.001050
19.800 0.001244
20.200 0.001468
20.500 0.001644
21.000 0.002001
21.600 0.002427
22.000 0.002771
22.300 0.003033
22.700 0.003439
23.000 0.036927
23.400 0.331725
24.000 0.748048
24.600 0.706033
25.200 0.762243
25.700 0.412349
26.000 0.726047
26.400 0.799858
26.900 0.798439
27.400 0.790632
27.900 0.774308
28.400 0.778566
29.000 0.732434
29.600 0.714691
30.100 0.598935
30.800 0.660185
31.800 0.738822
32.800 0.728886
33.800 0.721079
34.800 0.707594
35.700 0.728176
36.600 0.775727
37.500 0.758694
38.500 0.722498
39.500 0.779276
40.500 0.802697
41.400 0.808375
42.200 0.796309
43.000 0.785664
44.100 0.823279
45.100 0.833925
46.000 0.821859
47.000 0.841022
48.000 0.880767
49.000 0.869411
50.000 0.936835
50.600 1.733854
51.200 4.670688
52.000 4.410930
53.000 4.058197
54.000 3.627395
55.000 3.954578
56.000 4.759404
57.000 4.948900
58.000 4.623137
59.000 4.806246
60.000 4.235628
61.000 4.592619
62.000 5.283180
63.000 5.165366
64.000 5.251952
65.000 5.190206
65.800 4.938964
66.500 5.254081
67.500 5.469127
68.500 4.773598
69.500 5.462740
70.500 4.629524
71.600 5.666430
72.600 5.606813
73.500 5.657204
74.500 5.541519
75.500 5.515969
76.500 5.305891
77.500 5.515969
78.500 5.553584
79.500 5.585522
80.500 5.510291
81.500 5.518098
82.500 5.612491
83.500 4.673527
84.500 5.479773
85.500 5.449255
86.500 5.545067
87.500 5.540099
88.500 5.561391
89.500 5.570617
90.500 5.459191
91.500 6.171043
92.500 18.019872
93.500 26.941093
94.500 35.457771
95.500 38.310859
96.500 42.405962
97.500 20.922640
98.500 36.919801
99.500 33.782825
100.500 36.983676
101.500 36.997871
102.500 27.182399
103.500 34.478353
104.500 39.503194
105.500 38.168914
106.500 34.336409
107.500 35.315827
108.500 32.562101
109.500 34.897090
110.500 33.427963
111.500 32.860185
112.500 29.772889
113.500 31.937544
114.500 30.369056
115.500 29.907736
116.500 29.283180
117.500 22.264017
118.500 27.104329
119.500 25.578424
120.500 23.846700
121.500 18.133428
122.500 23.541519
123.500 25.337119
124.500 25.251952
125.500 24.769340
126.500 24.471256
127.500 24.982257
128.500 24.811923
129.500 23.129879
130.500 22.895671
131.500 23.740241
132.500 22.895671
133.500 22.036906
134.500 22.377573
135.500 21.873669
136.500 20.986515
137.500 20.688432
138.500 20.340667
139.500 16.806246
140.500 16.082328
141.500 19.077360
142.500 18.026969
143.500 18.410220
144.200 18.417317
144.700 18.261178
145.500 17.721789
146.500 17.253371
147.500 17.026260
148.500 16.948190
149.500 16.536551
150.500 16.103620
151.200 15.493258
151.700 15.599716
152.500 15.294535
153.500 13.860894
154.500 12.526615
155.500 12.441448
156.500 13.321505
157.500 13.711852
158.500 13.754436
159.500 13.640880
160.500 12.952449
161.500 12.625976
162.500 12.555004
163.500 12.640170
164.500 12.370476
165.500 12.405962
166.500 12.356281
167.200 11.653655
167.700 12.590490
168.500 12.327892
169.500 11.958836
170.500 11.660752
171.500 11.270405
172.500 11.007807
173.500 11.263307
174.500 11.043293
175.500 10.979418
176.500 10.688432
177.500 10.539390
178.500 10.518098
179.500 10.432931
180.500 10.369056
181.500 10.007097
182.500 9.921930
183.500 9.794180
184.500 9.304471
185.500 9.219304
186.500 9.212207
187.500 9.226402
188.500 8.772179
189.500 8.509581
190.500 8.715401
191.500 8.445706
192.500 8.133428
193.500 8.346345
194.500 8.396026
195.500 7.899219
196.700 8.119233
197.600 8.197303
198.400 7.913414
199.500 7.686302
200.500 7.757275
201.500 7.665011
202.500 7.679205
203.500 7.402413
204.500 7.352732
205.500 6.437899
206.500 6.804826
207.400 7.281760
207.800 7.053229
208.500 7.069553
209.500 6.833215
210.500 6.855216
211.500 6.845280
212.500 6.786373
213.500 6.624556
214.500 6.529454
215.500 6.555713
216.500 6.383960
217.500 6.342087
218.500 6.220724
219.500 6.255500
220.500 6.141235
221.500 5.982257
222.500 5.894961
223.500 5.892122
224.500 5.777857
225.500 5.643009
226.500 5.635912
227.500 5.605394
228.500 5.544358
229.500 5.330021
230.500 5.322924
231.500 5.254081
232.500 4.831086
233.500 5.081618
234.500 5.003549
235.500 5.005678
236.500 4.883605
237.500 4.844571
238.500 4.674947
239.500 4.714691
240.500 4.638041
241.500 4.600426
242.500 4.596877
243.500 4.498226
244.500 4.497516
245.500 4.429383
246.500 4.376863
247.500 4.302342
248.500 4.281050
249.500 3.832505
250.500 4.195174
251.300 4.003549
251.800 4.093683
252.500 4.053939
253.500 4.014194
254.500 3.944642
255.500 3.946061
256.500 3.899219
257.500 3.899219
258.500 3.852378
259.500 3.801278
260.500 3.739532
261.500 3.690561
262.500 3.677076
263.500 3.647977
264.500 3.667850
265.500 3.625976
266.500 3.539390
267.500 3.521647
268.500 3.498935
269.500 3.422285
270.500 3.409510
271.500 3.349184
272.500 3.312988
273.500 3.292406
274.500 3.209368
275.500 3.185238
276.500 3.162527
277.500 3.176721
278.500 3.136267
279.500 2.990064
280.500 3.016324
281.500 3.061746
282.500 3.023421
283.500 2.963804
284.500 2.938964
285.500 2.907026
286.500 2.903478
287.500 2.865153
288.500 2.847410
289.500 2.811214
291.000 2.800568
293.000 2.736693
295.000 2.671398
297.000 2.634493
299.000 2.583392
301.000 2.540099
303.000 2.491838
305.000 2.444287
307.000 2.396735
309.000 2.350603
311.000 2.305181
313.000 2.256920
315.000 2.221434
317.000 2.177431
319.000 2.117814
321.000 2.091554
323.000 2.054649
325.000 2.023421
327.000 1.989354
329.000 1.955997
331.000 1.926899
332.200 2.029099
332.300 2.027679
332.400 2.014904
332.500 2.010646
332.600 1.997871
332.700 1.987225
332.800 1.985806
332.900 1.993612
333.000 1.998581
333.100 2.002129
333.200 1.996451
333.300 1.975160
333.400 1.958126
333.500 1.948190
333.600 1.943932
333.700 1.947480
333.800 1.934705
333.900 1.914833
334.000 1.895671
334.100 1.902058
334.200 1.921930
334.300 1.963094
334.400 1.990064
334.500 2.007807
334.600 2.020582
334.700 2.021292
334.800 1.998581
334.900 1.961675
335.000 1.896380
335.100 1.883605
335.200 1.897800
335.300 1.906317
335.400 1.901348
335.500 1.884315
335.600 1.892832
335.700 1.911285
335.800 1.924060
335.900 1.911994
336.000 1.903478
336.100 1.884315
336.200 1.901348
336.300 1.912704
336.400 1.919092
336.500 1.900639
336.600 1.870830
336.700 1.849539
336.800 1.837473
336.900 1.848829
337.000 1.878637
337.100 1.883605
337.200 1.859475
337.300 1.843861
337.400 1.849539
337.500 1.877928
337.600 1.892122
337.700 1.869411
337.800 1.855926
337.900 1.851668
338.000 1.867282
338.100 1.889283
338.200 1.906317
338.300 1.914123
338.400 1.914123
338.500 1.925479
338.600 1.935415
338.700 1.933996
338.800 1.926899
338.900 1.919801
339.000 1.924060
339.100 1.926899
339.200 1.931157
339.300 1.928318
339.400 1.940383
339.500 1.946061
339.600 1.943222
339.700 1.929737
339.800 1.910575
339.900 1.865862
340.000 1.835344
340.100 1.841022
340.200 1.828957
340.300 1.820440
340.400 1.823279
340.500 1.833215
340.600 1.831086
340.700 1.834634
340.800 1.836054
340.900 1.841022
341.000 1.849539
341.100 1.836764
341.200 1.846700
341.300 1.863023
341.400 1.881476
341.500 1.882896
341.600 1.880057
341.700 1.884315
341.800 1.893542
341.900 1.899219
342.000 1.890703
342.100 1.879347
342.200 1.868701
342.300 1.873669
342.400 1.882896
342.500 1.882896
342.600 1.885735
342.700 1.887154
342.800 1.894251
342.900 1.900639
343.000 1.889993
343.100 1.889993
343.200 1.879347
343.300 1.872960
343.400 1.870830
343.500 1.877928
343.600 1.887154
343.700 1.882896
343.800 1.876508
343.900 1.864443
344.000 1.840312
344.100 1.826118
344.200 1.823279
344.300 1.833925
344.400 1.841732
344.500 1.828957
344.600 1.828247
344.700 1.833925
344.800 1.857346
344.900 1.873669
345.000 1.841732
345.100 1.806246
345.200 1.784954
345.300 1.772179
345.400 1.772889
345.500 1.772889
345.600 1.784244
345.700 1.787083
345.800 1.774308
345.900 1.765082
346.000 1.762243
346.100 1.755855
346.200 1.766501
346.300 1.805536
346.400 1.795600
346.500 1.799148
346.600 1.801987
346.700 1.797729
346.800 1.790632
346.900 1.788502
347.000 1.796309
347.100 1.784954
347.200 1.778566
347.300 1.778566
347.400 1.774308
347.500 1.765082
347.600 1.764372
347.700 1.754436
347.800 1.740241
347.900 1.728176
348.000 1.730305
348.100 1.743790
348.200 1.733854
348.300 1.714691
348.400 1.723918
348.500 1.762952
348.600 1.783534
348.700 1.793471
348.800 1.805536
348.900 1.800568
349.000 1.784244
349.100 1.781405
349.200 1.797729
349.300 1.797019
349.400 1.785664
349.500 1.770050
349.600 1.756565
349.700 1.757275
349.800 1.767921
349.900 1.767921
350.000 1.742370
350.100 1.726757
350.200 1.738112
350.300 1.745919
350.400 1.732434
350.500 1.713982
350.600 1.706175
350.700 1.709723
350.800 1.723208
350.900 1.728176
351.000 1.724627
351.100 1.716820
351.200 1.709013
351.300 1.697658
351.400 1.700497
351.500 1.713272
351.600 1.722498
351.700 1.728176
351.800 1.735983
351.900 1.738112
352.000 1.737402
352.100 1.730305
352.200 1.728886
352.300 1.735273
352.400 1.742370
352.500 1.738112
352.600 1.731015
352.700 1.727466
352.800 1.728176
352.900 1.735273
353.000 1.741661
353.100 1.748048
353.200 1.755855
353.300 1.750887
353.400 1.735983
353.500 1.733144
353.600 1.733854
353.700 1.726757
353.800 1.731015
353.900 1.733144
354.000 1.738112
354.100 1.739532
354.200 1.740241
354.300 1.748758
354.400 1.754436
354.500 1.748048
354.600 1.745209
354.700 1.752307
354.800 1.758694
354.900 1.757275
355.000 1.751597
355.100 1.749468
355.200 1.752307
355.300 1.751597
355.400 1.745209
355.500 1.738112
355.600 1.731015
355.700 1.733854
355.800 1.740241
355.900 1.738112
356.000 1.727466
356.100 1.730305
356.200 1.738822
356.300 1.739532
356.400 1.732434
356.500 1.721079
356.600 1.715401
356.700 1.707594
356.800 1.711143
356.900 1.709723
357.000 1.694109
357.100 1.661462
357.200 1.642300
357.300 1.638751
357.400 1.638041
357.500 1.635912
357.600 1.639461
357.700 1.633783
357.800 1.633783
357.900 1.635202
358.000 1.638041
358.100 1.642300
358.200 1.640170
358.300 1.640170
358.400 1.636622
358.500 1.618879
358.600 1.613911
358.700 1.620298
358.800 1.615330
358.900 1.620298
359.000 1.629524
359.100 1.625976
359.200 1.619588
359.300 1.621008
359.400 1.628815
359.500 1.633073
359.600 1.631654
359.700 1.636622
359.800 1.645138
359.900 1.650106
360.000 1.652945
360.100 1.647268
360.200 1.646558
360.300 1.641590
360.400 1.638751
360.500 1.639461
360.600 1.641590
360.700 1.643719
360.800 1.646558
360.900 1.648687
361.000 1.649397
361.100 1.644429
361.200 1.643009
361.300 1.635202
361.400 1.628105
361.500 1.628105
361.600 1.641590
361.700 1.649397
361.800 1.656494
361.900 1.662881
362.000 1.657913
362.100 1.659333
362.200 1.674237
362.300 1.679915
362.400 1.670688
362.500 1.666430
362.600 1.676366
362.700 1.688432
362.800 1.689851
362.900 1.679205
363.000 1.669979
363.100 1.658623
363.200 1.650816
363.300 1.652945
363.400 1.667850
363.500 1.669269
363.600 1.642300
363.700 1.633073
363.800 1.636622
363.900 1.638041
364.000 1.631654
364.100 1.628105
364.200 1.629524
364.300 1.624556
364.400 1.618169
364.500 1.620298
364.600 1.616749
364.700 1.614620
364.800 1.614620
364.900 1.616040
365.000 1.620298
365.100 1.621718
365.200 1.623847
365.300 1.622427
365.400 1.620298
365.500 1.618879
365.600 1.621008
365.700 1.623137
365.800 1.623137
365.900 1.620298
366.000 1.611781
366.100 1.608233
366.200 1.598297
366.300 1.600426
366.400 1.603974
366.500 1.602555
366.600 1.606813
366.700 1.603974
366.800 1.601136
366.900 1.606813
367.000 1.613201
367.100 1.614620
367.200 1.615330
367.300 1.608943
367.400 1.602555
367.500 1.591909
367.600 1.586231
367.700 1.579844
367.800 1.577005
367.900 1.579844
368.000 1.592619
368.100 1.618879
368.200 1.611072
368.300 1.601136
368.400 1.609652
368.500 1.599006
368.600 1.571327
368.700 1.579844
368.800 1.630234
368.900 1.688432
369.000 1.681334
369.100 1.611781
369.200 1.613201
369.300 1.665720
369.400 1.714691
369.500 1.711143
369.600 1.633783
369.700 1.596167
369.800 1.606104
369.900 1.696948
370.000 1.783534
370.100 1.787793
370.200 1.717530
370.300 1.572747
370.400 1.506742
370.500 1.508872
370.600 1.612491
370.700 1.716111
370.800 1.804116
370.900 1.770759
371.000 1.662881
371.100 1.547197
371.200 1.480483
371.300 1.523066
371.400 1.630234
371.500 1.787083
371.600 1.867991
371.700 1.929028
371.800 1.923350
371.900 1.836054
372.000 1.649397
372.100 1.532292
372.200 1.449965
372.300 1.501774
372.400 1.630234
372.500 1.809794
372.600 1.876508
372.700 1.945351
372.800 1.978708
372.900 1.999290
373.000 1.973031
373.100 1.885025
373.200 1.714691
373.300 1.561391
373.400 1.421576
373.500 1.410930
373.600 1.496806
373.700 1.675656
373.800 1.806955
373.900 1.964514
374.000 2.030518
374.100 2.060326
374.200 2.056068
374.300 2.041874
374.400 2.023421
374.500 1.977289
374.600 1.889993
374.700 1.762243
374.800 1.615330
374.900 1.416608
375.000 1.366927
375.100 1.416608
375.200 1.569908
375.300 1.709013
375.400 1.860185
375.500 1.925479
375.600 1.990774
375.700 1.973031
375.800 1.933286
375.900 1.891412
376.000 1.875798
376.100 1.878637
376.200 1.929028
376.300 1.963094
376.400 1.963804
376.500 1.937544
376.600 1.872960
376.700 1.792051
376.800 1.657913
376.900 1.483322
377.000 1.352023
377.100 1.317246
377.200 1.432221
377.300 1.610362
377.400 1.740241
377.500 1.846700
377.600 1.929737
377.700 1.985806
377.800 2.042583
377.900 2.069553
378.000 2.093683
378.100 2.102910
378.200 2.101490
378.300 2.085877
378.400 2.085167
378.500 2.092264
378.600 2.077360
378.700 2.057488
378.800 2.047551
378.900 2.042583
379.000 2.030518
379.100 2.009936
379.200 1.973740
379.300 1.911285
379.400 1.824698
379.500 1.666430
379.600 1.511001
379.700 1.343506
379.800 1.264017
379.900 1.327892
380.000 1.526615
380.100 1.683463
380.200 1.833215
380.300 1.915543
380.400 1.978708
380.500 2.023421
380.600 2.028389
380.700 2.041874
380.800 2.059617
380.900 2.086586
381.000 2.112136
381.100 2.117104
381.200 2.078779
381.300 2.027679
381.400 1.987935
381.500 1.985806
381.600 2.006388
381.700 2.024131
381.800 2.008517
381.900 1.968062
382.000 1.930447
382.100 1.934705
382.200 1.990774
382.300 2.010646
382.400 1.987225
382.500 1.952449
382.600 1.925479
382.700 1.922640
382.800 1.910575
382.900 1.880767
383.000 1.843151
383.100 1.770759
383.200 1.659333
383.300 1.511710
383.400 1.302342
383.500 1.212917
383.600 1.215756
383.700 1.342087
383.800 1.496097
383.900 1.658623
384.000 1.755145
384.100 1.860894
384.200 1.918382
384.300 1.972321
384.400 1.995742
384.500 2.017743
384.600 2.029808
384.700 2.031938
384.800 2.022711
384.900 2.004968
385.000 2.000710
385.100 2.024840
385.200 2.041164
385.300 2.032647
385.400 2.007097
385.500 1.980128
385.600 1.960965
385.700 1.979418
385.800 2.007807
385.900 2.017743
386.000 2.024840
386.100 2.019872
386.200 1.996451
386.300 1.948190
386.400 1.953868
386.500 1.968772
386.600 1.970901
386.700 1.985806
386.800 2.007807
386.900 2.021292
387.000 2.022001
387.100 1.995742
387.200 1.963094
387.300 1.955997
387.400 1.984386
387.500 2.015614
387.600 2.011356
387.700 1.980128
387.800 1.953158
387.900 1.951029
388.000 1.960256
388.100 1.942512
388.200 1.897090
388.300 1.857346
388.400 1.811214
388.500 1.716111
388.600 1.588361
388.700 1.397445
388.800 1.239886
388.900 1.162527
389.000 1.237757
389.100 1.399574
389.200 1.605394
389.300 1.721789
389.400 1.814762
389.500 1.860894
389.600 1.895671
389.700 1.929737
389.800 1.932576
389.900 1.924060
390.000 1.919092
390.100 1.942512
390.200 1.975869
390.300 1.989354
390.400 1.989354
390.500 1.970901
390.600 1.951029
390.700 1.973740
390.800 2.017033
390.900 2.048971
391.000 2.055358
391.100 2.051100
391.200 2.019872
391.300 1.977999
391.400 1.949610
391.500 1.959546
391.600 1.987935
391.700 2.002839
391.800 2.007097
391.900 1.990774
392.000 1.980128
392.100 1.979418
392.200 1.974450
392.300 1.961675
392.400 1.957417
392.500 1.962385
392.600 1.956707
392.700 1.952449
392.800 1.938964
392.900 1.916962
393.000 1.888573
393.100 1.836764
393.200 1.716111
393.300 1.557133
393.400 1.559972
393.500 1.674237
393.600 1.811214
393.700 1.876508
393.800 1.907736
393.900 1.932576
394.000 1.965933
394.100 1.981547
394.200 1.978708
394.300 1.956707
394.400 1.940383
394.500 1.930447
394.600 1.933996
394.700 1.941803
394.800 1.947480
394.900 1.942512
395.000 1.933996
395.100 1.922640
395.200 1.916253
395.300 1.928318
395.400 1.940383
395.500 1.933996
395.600 1.914123
395.700 1.899929
395.800 1.902768
395.900 1.903478
396.000 1.880767
396.100 1.848119
396.200 1.811214
396.300 1.777857
396.400 1.723918
396.500 1.651526
396.600 1.545777
396.700 1.344925
396.800 1.141235
396.900 1.002129
397.000 0.984386
397.100 1.095103
397.200 1.293116
397.300 1.444287
397.400 1.580554
397.500 1.676366
397.600 1.744500
397.700 1.802697
397.800 1.823989
397.900 1.853797
398.000 1.865153
398.100 1.868701
398.200 1.864443
398.300 1.874379
398.400 1.899929
398.500 1.916253
398.600 1.915543
398.700 1.894251
398.800 1.909865
398.900 1.914123
399.000 1.916962
399.100 1.920511
399.200 1.924060
399.300 1.931157
399.400 1.933286
399.500 1.928318
399.600 1.912704
399.700 1.901348
399.800 1.899929
399.900 1.907736
400.000 1.900639
400.100 1.884315
400.200 1.872250
400.300 1.864443
400.400 1.868701
400.500 1.866572
400.600 1.880057
400.700 1.897090
400.800 1.903478
400.900 1.897090
401.000 1.890703
401.100 1.889993
401.200 1.888573
401.300 1.886444
401.400 1.894961
401.500 1.904187
401.600 1.922640
401.700 1.936125
401.800 1.943932
401.900 1.946771
402.000 1.943932
402.100 1.932576
402.200 1.913414
402.300 1.870830
402.400 1.817601
402.500 1.775727
402.600 1.784244
402.700 1.818311
402.800 1.850248
402.900 1.872250
403.000 1.887154
403.100 1.894961
403.200 1.899219
403.300 1.897800
403.400 1.899929
403.500 1.907026
403.600 1.914833
403.700 1.922640
403.800 1.929737
403.900 1.931867
404.000 1.933996
404.100 1.933996
404.200 1.928318
404.300 1.919801
404.400 1.902058
404.500 1.878637
404.600 1.871540
404.700 1.889993
404.800 1.905607
404.900 1.907736
405.000 1.905607
405.100 1.903478
405.200 1.897090
405.300 1.882896
405.400 1.880767
405.500 1.895671
405.600 1.908446
405.700 1.911994
405.800 1.914833
405.900 1.922640
406.000 1.906317
406.100 1.858765
406.200 1.858055
406.300 1.862314
406.400 1.843861
406.500 1.808375
406.600 1.810504
406.700 1.811214
406.800 1.813343
406.900 1.817601
407.000 1.804826
407.100 1.789212
407.200 1.787793
407.300 1.796309
407.400 1.808375
407.500 1.800568
407.600 1.775727
407.700 1.753016
407.800 1.756565
407.900 1.793471
408.000 1.820440
408.100 1.831796
408.200 1.828957
408.300 1.819021
408.400 1.804826
408.500 1.794890
408.600 1.782825
408.700 1.783534
408.800 1.782825
408.900 1.782115
409.000 1.772889
409.100 1.776437
409.200 1.780696
409.300 1.765791
409.400 1.736693
409.500 1.687722
409.600 1.628105
409.700 1.564940
409.800 1.469127
409.900 1.355571
410.000 1.202981
410.100 1.050390
410.200 1.014194
410.300 1.122782
410.400 1.290277
410.500 1.457771
410.600 1.555004
410.700 1.619588
410.800 1.663591
410.900 1.679205
411.000 1.697658
411.100 1.715401
411.200 1.738112
411.300 1.753726
411.400 1.767921
411.500 1.779276
411.600 1.785664
411.700 1.781405
411.800 1.763662
411.900 1.753726
412.000 1.748048
412.100 1.744500
412.200 1.738822
412.300 1.739532
412.400 1.753726
412.500 1.777147
412.600 1.769340
412.700 1.733144
412.800 1.696948
412.900 1.682044
413.000 1.687012
413.100 1.696948
413.200 1.711143
413.300 1.738112
413.400 1.772179
413.500 1.787083
413.600 1.793471
413.700 1.789212
413.800 1.792761
413.900 1.798439
414.000 1.801987
414.100 1.797729
414.200 1.772889
414.300 1.738822
414.400 1.722498
414.500 1.743790
414.600 1.769340
414.700 1.784244
414.800 1.782825
414.900 1.775018
