# Wavelength (nm)   F_lamA (normalized erg/cm2/s/A)9.100 0.000000
9.400 0.000000
9.600 0.000000
9.800 0.000000
10.000 0.000000
10.200 0.000000
10.400 0.000000
10.600 0.000000
10.800 0.000000
11.000 0.000000
11.400 0.000000
11.800 0.000000
12.100 0.000000
12.500 0.000000
12.700 0.000000
12.800 0.000000
13.100 0.000000
13.200 0.000000
13.400 0.000001
13.700 0.000001
14.000 0.000001
14.300 0.000002
14.700 0.000004
15.100 0.000006
15.500 0.000010
15.900 0.000015
16.200 0.000021
16.600 0.000033
17.000 0.000049
17.300 0.000065
17.700 0.000093
18.000 0.000121
18.200 0.000142
18.600 0.000198
19.100 0.000290
19.400 0.000362
19.800 0.000481
20.200 0.000627
20.500 0.000764
21.000 0.001046
21.600 0.001483
22.000 0.001846
22.300 0.002172
22.700 0.002667
23.000 0.296194
23.400 1.611654
24.000 6.665544
24.600 15.008420
25.200 21.562816
25.700 9.760862
26.000 23.179522
26.400 30.070731
26.900 30.932974
27.400 32.024251
27.900 29.794544
28.400 32.627147
29.000 32.330751
29.600 27.874705
30.100 10.804985
30.800 17.241495
31.800 28.871674
32.800 29.218592
33.800 28.039744
34.800 27.113506
35.700 27.969013
36.600 28.881778
37.500 28.191310
38.500 25.298080
39.500 27.217918
40.500 27.780397
41.400 27.409902
42.200 26.348939
43.000 25.863927
44.100 26.487033
45.100 26.082856
46.000 25.065679
47.000 24.634557
48.000 24.698552
49.000 23.603907
50.000 23.957561
50.600 24.924217
51.200 30.538902
52.000 29.902324
53.000 29.400472
54.000 27.403166
55.000 26.904682
56.000 28.218255
57.000 27.921859
58.000 27.002358
59.000 26.961940
60.000 26.042439
61.000 25.042102
62.000 25.591108
63.000 24.974739
64.000 24.877063
65.000 24.240485
65.800 23.479286
66.500 23.735264
67.500 23.512967
68.500 22.502526
69.500 22.714719
70.500 21.640283
71.600 21.963624
72.600 21.680701
73.500 21.380936
74.500 20.892556
75.500 20.485012
76.500 19.882115
77.500 19.797912
78.500 19.376895
79.500 19.104075
80.500 18.908723
81.500 18.642641
82.500 18.396767
83.500 17.524419
84.500 17.770293
85.500 17.406534
86.500 17.258336
87.500 16.998990
88.500 16.712698
89.500 16.419670
90.500 15.988548
91.500 14.914112
92.500 24.297743
93.500 31.892893
94.500 41.057595
95.500 43.213203
96.500 48.164365
97.500 34.994948
98.500 46.244527
99.500 42.910071
100.500 44.560458
101.500 43.044796
102.500 31.805322
103.500 40.586056
104.500 41.192321
105.500 40.249242
106.500 38.531492
107.500 37.958909
108.500 35.230717
109.500 36.476928
110.500 35.331762
111.500 34.523409
112.500 33.135736
113.500 33.041428
114.500 32.145504
115.500 31.303469
116.500 30.592792
117.500 28.059953
118.500 29.040081
119.500 28.191310
120.500 27.049512
121.500 20.724150
122.500 25.890872
123.500 25.752779
124.500 25.220613
125.500 24.947794
126.500 24.405524
127.500 23.947457
128.500 23.459077
129.500 22.755136
130.500 22.297070
131.500 21.980465
132.500 21.428090
133.500 20.916133
134.500 20.609633
135.500 20.154934
136.500 19.666554
137.500 19.191647
138.500 18.878410
139.500 17.733244
140.500 17.066352
141.500 17.746716
142.500 17.322331
143.500 17.039407
144.200 16.769956
144.700 16.604917
145.500 16.318626
146.500 15.998653
147.500 15.695520
148.500 15.426069
149.500 15.102728
150.500 14.806332
151.200 14.600876
151.700 14.452678
152.500 14.213540
153.500 13.799259
154.500 13.206467
155.500 13.021219
156.500 13.024587
157.500 12.849444
158.500 12.643988
159.500 12.414955
160.500 12.071405
161.500 11.845739
162.500 11.616706
163.500 11.276524
164.500 10.737622
165.500 11.060963
166.500 10.892556
167.200 10.676996
167.700 10.693836
168.500 10.535534
169.500 10.340182
170.500 10.134725
171.500 9.868643
172.500 9.740653
173.500 9.642977
174.500 9.457730
175.500 9.289323
176.500 9.117548
177.500 8.986191
178.500 8.841361
179.500 8.693163
180.500 8.558437
181.500 8.403503
182.500 8.262041
183.500 8.127316
184.500 7.958909
185.500 7.810711
186.500 7.696194
187.500 7.591782
188.500 7.433479
189.500 7.295386
190.500 7.217918
191.500 7.073089
192.500 6.941731
193.500 6.864264
194.500 6.776692
195.500 6.631863
196.700 6.544291
197.600 6.460088
198.400 6.365780
199.500 6.234422
200.500 6.163691
201.500 6.072752
202.500 5.985180
203.500 5.887504
204.500 5.796564
205.500 4.789491
206.500 5.005052
207.400 5.550690
207.800 5.554059
208.500 5.510273
209.500 5.442910
210.500 5.365443
211.500 5.314921
212.500 5.237454
213.500 5.149882
214.500 5.075783
215.500 5.042102
216.500 4.914112
217.500 4.890536
218.500 4.776019
219.500 4.762546
220.500 4.688447
221.500 4.563826
222.500 4.546986
223.500 4.496463
224.500 4.425733
225.500 4.304480
226.500 4.297743
227.500 4.247221
228.500 4.189963
229.500 4.099023
230.500 4.014820
231.500 4.014820
232.500 3.896935
233.500 3.896935
234.500 3.832940
235.500 3.799259
236.500 3.731896
237.500 3.694847
238.500 3.563489
239.500 3.587066
240.500 3.539912
241.500 3.499495
242.500 3.469182
243.500 3.422028
244.500 3.381610
245.500 3.338498
246.500 3.294712
247.500 3.248569
248.500 3.211182
249.500 3.116201
250.500 3.136410
251.300 2.964635
251.800 3.075109
252.500 3.043449
253.500 3.006399
254.500 2.970360
255.500 2.945436
256.500 2.905692
257.500 2.879757
258.500 2.841361
259.500 2.801954
260.500 2.762883
261.500 2.725160
262.500 2.704951
263.500 2.684406
264.500 2.682721
265.500 2.653419
266.500 2.609633
267.500 2.586730
268.500 2.564837
269.500 2.520714
270.500 2.501516
271.500 2.462108
272.500 2.430111
273.500 2.371169
274.500 2.355002
275.500 2.341529
276.500 2.323341
277.500 2.317952
278.500 2.280903
279.500 2.194005
280.500 2.185248
281.500 2.224992
282.500 2.205120
283.500 2.182553
284.500 2.158976
285.500 2.127989
286.500 2.120916
287.500 2.098013
288.500 2.081509
289.500 2.057258
291.000 2.044123
293.000 2.000674
295.000 1.956551
297.000 1.927922
299.000 1.895588
301.000 1.857865
303.000 1.817784
305.000 1.780734
307.000 1.743348
309.000 1.711687
311.000 1.672617
313.000 1.637588
315.000 1.611991
317.000 1.581677
319.000 1.533513
321.000 1.504547
323.000 1.480296
325.000 1.462108
327.000 1.441563
329.000 1.419333
331.000 1.399461
332.200 1.391378
332.300 1.404176
332.400 1.406534
332.500 1.404513
332.600 1.392388
332.700 1.365106
332.800 1.358707
332.900 1.366453
333.000 1.369485
333.100 1.374874
333.200 1.372516
333.300 1.359717
333.400 1.348265
333.500 1.336814
333.600 1.325362
333.700 1.327046
333.800 1.328730
333.900 1.329741
334.000 1.320647
334.100 1.316605
334.200 1.325025
334.300 1.354328
334.400 1.387336
334.500 1.405187
334.600 1.410913
334.700 1.399124
334.800 1.373863
334.900 1.331425
335.000 1.288986
335.100 1.292691
335.200 1.309869
335.300 1.319973
335.400 1.323004
335.500 1.315594
335.600 1.304816
335.700 1.289660
335.800 1.268441
335.900 1.249579
336.000 1.242506
336.100 1.251263
336.200 1.277871
336.300 1.300775
336.400 1.312563
336.500 1.303132
336.600 1.279219
336.700 1.263052
336.800 1.246211
336.900 1.240485
337.000 1.244190
337.100 1.249579
337.200 1.242169
337.300 1.251937
337.400 1.273493
337.500 1.296733
337.600 1.307511
337.700 1.294038
337.800 1.268777
337.900 1.265072
338.000 1.274840
338.100 1.301111
338.200 1.312226
338.300 1.315931
338.400 1.310205
338.500 1.312900
338.600 1.324352
338.700 1.329741
338.800 1.330077
338.900 1.321657
339.000 1.313574
339.100 1.307174
339.200 1.308521
339.300 1.313910
339.400 1.334456
339.500 1.346918
339.600 1.346581
339.700 1.344224
339.800 1.338498
339.900 1.312900
340.000 1.285955
340.100 1.278208
340.200 1.260694
340.300 1.254968
340.400 1.260357
340.500 1.270125
340.600 1.267093
340.700 1.259010
340.800 1.260020
340.900 1.261367
341.000 1.267767
341.100 1.258336
341.200 1.263388
341.300 1.278545
341.400 1.294038
341.500 1.301111
341.600 1.302459
341.700 1.307511
341.800 1.313574
341.900 1.321994
342.000 1.319299
342.100 1.319636
342.200 1.311553
342.300 1.311890
342.400 1.312563
342.500 1.309532
342.600 1.309869
342.700 1.314921
342.800 1.329067
342.900 1.349949
343.000 1.343213
343.100 1.323341
343.200 1.305153
343.300 1.297743
343.400 1.299091
343.500 1.312900
343.600 1.324015
343.700 1.324688
343.800 1.316942
343.900 1.297743
344.000 1.273493
344.100 1.248905
344.200 1.244190
344.300 1.250589
344.400 1.265746
344.500 1.265409
344.600 1.268104
344.700 1.273493
344.800 1.292018
344.900 1.309195
345.000 1.291681
345.100 1.260694
345.200 1.245537
345.300 1.239475
345.400 1.247558
345.500 1.254968
345.600 1.259683
345.700 1.256652
345.800 1.240148
345.900 1.228360
346.000 1.219939
346.100 1.223308
346.200 1.239811
346.300 1.289323
346.400 1.273493
346.500 1.262715
346.600 1.264399
346.700 1.264062
346.800 1.270798
346.900 1.284271
347.000 1.291007
347.100 1.269788
347.200 1.260020
347.300 1.257326
347.400 1.238464
347.500 1.222297
347.600 1.212529
347.700 1.204446
347.800 1.195352
347.900 1.195352
348.000 1.213877
348.100 1.233412
348.200 1.228360
348.300 1.212193
348.400 1.217582
348.500 1.253621
348.600 1.269451
348.700 1.271809
348.800 1.272482
348.900 1.258673
349.000 1.241832
349.100 1.239475
349.200 1.254968
349.300 1.255305
349.400 1.244864
349.500 1.222634
349.600 1.191984
349.700 1.200741
349.800 1.229033
349.900 1.261367
350.000 1.257326
350.100 1.230381
350.200 1.234422
350.300 1.239138
350.400 1.229707
350.500 1.213203
350.600 1.208488
350.700 1.214214
350.800 1.220950
350.900 1.218255
351.000 1.206804
351.100 1.203436
351.200 1.202762
351.300 1.200404
351.400 1.205120
351.500 1.207814
351.600 1.227012
351.700 1.233749
351.800 1.238464
351.900 1.233412
352.000 1.221287
352.100 1.213877
352.200 1.218592
352.300 1.220276
352.400 1.218255
352.500 1.196699
352.600 1.201415
352.700 1.212866
352.800 1.232401
352.900 1.249579
353.000 1.249916
353.100 1.247221
353.200 1.252610
353.300 1.251263
353.400 1.236106
353.500 1.227686
353.600 1.229370
353.700 1.227349
353.800 1.236106
353.900 1.242169
354.000 1.251600
354.100 1.255978
354.200 1.250926
354.300 1.249579
354.400 1.252273
354.500 1.250926
354.600 1.247895
354.700 1.253284
354.800 1.261367
354.900 1.263388
355.000 1.257663
355.100 1.251263
355.200 1.248569
355.300 1.248905
355.400 1.250253
355.500 1.248905
355.600 1.238464
355.700 1.242506
355.800 1.246548
355.900 1.244527
356.000 1.241495
356.100 1.246548
356.200 1.256989
356.300 1.256652
356.400 1.247558
356.500 1.228023
356.600 1.210172
356.700 1.194678
356.800 1.201415
356.900 1.203099
357.000 1.188279
357.100 1.160323
357.200 1.151229
357.300 1.151566
357.400 1.151566
357.500 1.160323
357.600 1.165376
357.700 1.171438
357.800 1.181543
357.900 1.180195
358.000 1.178848
358.100 1.173459
358.200 1.168744
358.300 1.177501
358.400 1.178174
358.500 1.153924
358.600 1.128326
358.700 1.124958
358.800 1.124958
358.900 1.129336
359.000 1.142135
359.100 1.158976
359.200 1.168070
359.300 1.175817
359.400 1.179859
359.500 1.181879
359.600 1.182216
359.700 1.186932
359.800 1.197710
359.900 1.206467
360.000 1.213203
360.100 1.198046
360.200 1.187605
360.300 1.171775
360.400 1.166723
360.500 1.174133
360.600 1.179522
360.700 1.182890
360.800 1.182890
360.900 1.180195
361.000 1.172112
361.100 1.159313
361.200 1.158639
361.300 1.151229
361.400 1.146514
361.500 1.163691
361.600 1.189626
361.700 1.201751
361.800 1.191984
361.900 1.177838
362.000 1.171775
362.100 1.180532
362.200 1.200741
362.300 1.205793
362.400 1.199057
362.500 1.202088
362.600 1.216234
362.700 1.233749
362.800 1.229707
362.900 1.211182
363.000 1.186932
363.100 1.166049
363.200 1.151903
363.300 1.161671
363.400 1.190637
363.500 1.204783
363.600 1.189963
363.700 1.181543
363.800 1.189963
363.900 1.194678
364.000 1.187942
364.100 1.178848
364.200 1.162681
364.300 1.146851
364.400 1.137757
364.500 1.141462
364.600 1.147861
364.700 1.150893
364.800 1.156618
364.900 1.162681
365.000 1.167060
365.100 1.163355
365.200 1.168744
365.300 1.178174
365.400 1.182553
365.500 1.189626
365.600 1.194005
365.700 1.195015
365.800 1.194342
365.900 1.186258
366.000 1.173122
366.100 1.167060
366.200 1.163355
366.300 1.167396
366.400 1.174806
366.500 1.176154
366.600 1.176490
366.700 1.174806
366.800 1.174806
366.900 1.183900
367.000 1.185921
367.100 1.186258
367.200 1.195352
367.300 1.198046
367.400 1.193331
367.500 1.187268
367.600 1.178511
367.700 1.162681
367.800 1.151903
367.900 1.156955
368.000 1.177501
368.100 1.202762
368.200 1.206130
368.300 1.190637
368.400 1.176490
368.500 1.157629
368.600 1.139778
368.700 1.153924
368.800 1.204446
368.900 1.255978
369.000 1.265409
369.100 1.233412
369.200 1.228360
369.300 1.253621
369.400 1.271809
369.500 1.269788
369.600 1.231728
369.700 1.200404
369.800 1.219939
369.900 1.287639
370.000 1.354328
370.100 1.350960
370.200 1.297407
370.300 1.203436
370.400 1.138767
370.500 1.120916
370.600 1.166723
370.700 1.235433
370.800 1.284944
370.900 1.267093
371.000 1.205793
371.100 1.150219
371.200 1.121253
371.300 1.156955
371.400 1.242169
371.500 1.332098
371.600 1.384978
371.700 1.436174
371.800 1.429774
371.900 1.347255
372.000 1.207477
372.100 1.115527
372.200 1.057595
372.300 1.061637
372.400 1.182553
372.500 1.340856
372.600 1.393062
372.700 1.396430
372.800 1.410576
372.900 1.442573
373.000 1.440552
373.100 1.381947
373.200 1.255305
373.300 1.137420
373.400 1.039070
373.500 1.022567
373.600 1.069720
373.700 1.173459
373.800 1.275514
373.900 1.402492
374.000 1.466150
374.100 1.474234
374.200 1.445605
374.300 1.425733
374.400 1.412934
374.500 1.376895
374.600 1.297070
374.700 1.203772
374.800 1.111485
374.900 1.003368
375.000 0.984507
375.100 1.056248
375.200 1.187268
375.300 1.297407
375.400 1.387673
375.500 1.439542
375.600 1.467834
375.700 1.415291
375.800 1.316268
375.900 1.263725
376.000 1.259683
376.100 1.277198
376.200 1.336477
376.300 1.388009
376.400 1.404850
376.500 1.399124
376.600 1.357359
376.700 1.291681
376.800 1.210172
376.900 1.115190
377.000 1.036376
377.100 1.038397
377.200 1.123274
377.300 1.232065
377.400 1.291681
377.500 1.328730
377.600 1.372853
377.700 1.433142
377.800 1.503537
377.900 1.538565
378.000 1.566521
378.100 1.585045
378.200 1.576625
378.300 1.553048
378.400 1.552375
378.500 1.545975
378.600 1.500505
378.700 1.443921
378.800 1.423712
378.900 1.439879
379.000 1.467497
379.100 1.482991
379.200 1.475244
379.300 1.429438
379.400 1.344560
379.500 1.227349
379.600 1.120243
379.700 1.012799
379.800 0.963287
379.900 1.006063
380.000 1.159987
380.100 1.307511
380.200 1.424722
380.300 1.490401
380.400 1.527787
380.500 1.531829
380.600 1.503873
380.700 1.500505
380.800 1.525766
380.900 1.575615
381.000 1.615359
381.100 1.617043
381.200 1.537555
381.300 1.434153
381.400 1.367127
381.500 1.374874
381.600 1.428090
381.700 1.483665
381.800 1.500168
381.900 1.467497
382.000 1.417986
382.100 1.400808
382.200 1.460761
382.300 1.491074
382.400 1.426069
382.500 1.364096
382.600 1.346918
382.700 1.363422
382.800 1.375547
382.900 1.366117
383.000 1.351634
383.100 1.305153
383.200 1.202762
383.300 1.078814
383.400 0.964971
383.500 0.912765
383.600 0.923880
383.700 1.014146
383.800 1.117885
383.900 1.213877
384.000 1.273493
384.100 1.343213
384.200 1.403166
384.300 1.458067
384.400 1.499832
384.500 1.530818
384.600 1.538228
384.700 1.541260
384.800 1.524756
384.900 1.493432
385.000 1.468171
385.100 1.493095
385.200 1.533176
385.300 1.547322
385.400 1.542270
385.500 1.516335
385.600 1.477939
385.700 1.482654
385.800 1.486022
385.900 1.476928
386.000 1.482991
386.100 1.517346
386.200 1.536207
386.300 1.517346
386.400 1.522061
386.500 1.513978
386.600 1.505221
386.700 1.534187
386.800 1.575615
386.900 1.596497
387.000 1.574941
387.100 1.519367
387.200 1.448299
387.300 1.429774
387.400 1.480970
387.500 1.537555
387.600 1.546312
387.700 1.490064
387.800 1.431458
387.900 1.442573
388.000 1.486696
388.100 1.485349
388.200 1.440889
388.300 1.404513
388.400 1.378579
388.500 1.298417
388.600 1.180869
388.700 1.047828
388.800 0.955204
388.900 0.917144
389.000 0.990232
389.100 1.129673
389.200 1.274166
389.300 1.355002
389.400 1.392388
389.500 1.395756
389.600 1.398114
389.700 1.428427
389.800 1.425396
389.900 1.387336
390.000 1.374874
390.100 1.423038
390.200 1.470192
390.300 1.485685
390.400 1.483328
390.500 1.466150
390.600 1.435500
390.700 1.470529
390.800 1.549343
390.900 1.603570
391.000 1.621421
391.100 1.612327
391.200 1.557764
391.300 1.473560
391.400 1.426069
391.500 1.444257
391.600 1.476591
391.700 1.491074
391.800 1.502863
391.900 1.485685
392.000 1.471202
392.100 1.475918
392.200 1.471202
392.300 1.463456
392.400 1.468508
392.500 1.470866
392.600 1.435163
392.700 1.389693
392.800 1.321994
392.900 1.255642
393.000 1.176154
393.100 1.076120
393.200 0.943078
393.300 0.790502
393.400 0.786460
393.500 0.904008
393.600 1.038060
393.700 1.141799
393.800 1.234422
393.900 1.315594
394.000 1.393062
394.100 1.425059
394.200 1.432469
394.300 1.428090
394.400 1.426406
394.500 1.434490
394.600 1.461435
394.700 1.478276
394.800 1.466487
394.900 1.439879
395.000 1.424385
395.100 1.421017
395.200 1.426743
395.300 1.462108
395.400 1.497137
395.500 1.495116
395.600 1.460424
395.700 1.427080
395.800 1.427753
395.900 1.449310
396.000 1.442236
396.100 1.398114
396.200 1.337151
396.300 1.290670
396.400 1.221960
396.500 1.121253
396.600 0.995958
396.700 0.805995
396.800 0.641293
396.900 0.574941
397.000 0.619400
397.100 0.740317
397.200 0.912765
397.300 1.041091
397.400 1.159987
397.500 1.264736
397.600 1.340856
397.700 1.387336
397.800 1.414955
397.900 1.451330
398.000 1.462445
398.100 1.440216
398.200 1.402492
398.300 1.410913
398.400 1.464129
398.500 1.503873
398.600 1.496127
398.700 1.457393
398.800 1.472886
398.900 1.486696
399.000 1.500168
399.100 1.517346
399.200 1.539576
399.300 1.562479
399.400 1.557090
399.500 1.531492
399.600 1.484675
399.700 1.454362
399.800 1.453014
399.900 1.476591
400.000 1.498148
400.100 1.501516
400.200 1.486696
400.300 1.476591
400.400 1.477265
400.500 1.449646
400.600 1.463456
400.700 1.508589
400.800 1.541260
400.900 1.546312
401.000 1.537892
401.100 1.521388
401.200 1.492422
401.300 1.484001
401.400 1.508589
401.500 1.529471
401.600 1.557090
401.700 1.570562
401.800 1.583025
401.900 1.599192
402.000 1.602897
402.100 1.580667
402.200 1.543281
402.300 1.492422
402.400 1.435837
402.500 1.415965
402.600 1.471202
402.700 1.510273
402.800 1.496463
402.900 1.482317
403.000 1.475244
403.100 1.472886
403.200 1.485012
403.300 1.500168
403.400 1.514651
403.500 1.527114
403.600 1.540923
403.700 1.576625
403.800 1.599865
403.900 1.595824
404.000 1.582688
404.100 1.574267
404.200 1.570226
404.300 1.559448
404.400 1.527450
404.500 1.482991
404.600 1.460424
404.700 1.515999
404.800 1.552711
404.900 1.546986
405.000 1.546649
405.100 1.546986
405.200 1.531155
405.300 1.503873
405.400 1.493769
405.500 1.518020
405.600 1.550690
405.700 1.566184
405.800 1.584035
405.900 1.606938
406.000 1.574604
406.100 1.499832
406.200 1.492085
406.300 1.479960
406.400 1.457393
406.500 1.447625
406.600 1.477265
406.700 1.487369
406.800 1.499158
406.900 1.512294
407.000 1.488717
407.100 1.444594
407.200 1.433142
407.300 1.456046
407.400 1.484675
407.500 1.474907
407.600 1.414955
407.700 1.357023
407.800 1.353991
407.900 1.434153
408.000 1.505221
408.100 1.529134
408.200 1.528124
408.300 1.514651
408.400 1.491411
408.500 1.470866
408.600 1.461435
408.700 1.477939
408.800 1.509262
408.900 1.531155
409.000 1.530482
409.100 1.524082
409.200 1.528461
409.300 1.504884
409.400 1.479286
409.500 1.445268
409.600 1.402492
409.700 1.352307
409.800 1.270125
409.900 1.178848
410.000 1.053890
410.100 0.924217
410.200 0.879421
410.300 0.982149
410.400 1.137757
410.500 1.285955
410.600 1.361738
410.700 1.393398
410.800 1.406197
410.900 1.401145
411.000 1.400808
411.100 1.417649
411.200 1.453351
411.300 1.482991
411.400 1.512967
411.500 1.538228
411.600 1.547996
411.700 1.525429
411.800 1.487369
411.900 1.461772
412.000 1.466487
412.100 1.469518
412.200 1.441563
412.300 1.423038
412.400 1.454025
412.500 1.490064
412.600 1.497811
412.700 1.454025
412.800 1.398451
412.900 1.385989
413.000 1.408218
413.100 1.418323
413.200 1.411250
413.300 1.432132
413.400 1.476255
413.500 1.508589
413.600 1.526440
413.700 1.531492
413.800 1.541260
413.900 1.557764
414.000 1.566858
414.100 1.554395
414.200 1.510610
414.300 1.446615
414.400 1.426069
414.500 1.471202
414.600 1.514651
