# Wavelength (nm)   F_lamA (normalized erg/cm2/s/A)9.100 0.000052
9.400 0.000074
9.600 0.000091
9.800 0.000113
10.000 0.000137
10.200 0.000166
10.400 0.000198
10.600 0.000235
10.800 0.000277
11.000 0.000324
11.400 0.000435
11.800 0.000569
12.100 0.000686
12.500 0.000865
12.700 0.000964
12.800 0.001017
13.100 0.001184
13.200 0.001243
13.400 0.001367
13.700 0.001565
14.000 0.001778
14.300 0.002006
14.700 0.002332
15.100 0.002683
15.500 0.003056
15.900 0.003450
16.200 0.003757
16.600 0.004181
17.000 0.004621
17.300 0.004958
17.700 0.005418
18.000 0.005768
18.200 0.006004
18.600 0.006476
19.100 0.007080
19.400 0.007441
19.800 0.007916
20.200 0.008392
20.500 0.008752
21.000 0.009331
21.600 0.010019
22.000 0.010469
22.300 0.010797
22.700 0.011228
23.000 0.075305
23.400 0.074019
24.000 0.072347
24.600 0.070997
25.200 0.069518
25.700 0.066945
26.000 0.067074
26.400 0.066624
26.900 0.065080
27.400 0.063531
27.900 0.061756
28.400 0.060489
29.000 0.058669
29.600 0.056489
30.100 0.053550
30.800 0.052334
31.800 0.050733
32.800 0.048251
33.800 0.045781
34.800 0.043453
35.700 0.041614
36.600 0.039884
37.500 0.038090
38.500 0.036026
39.500 0.034476
40.500 0.032907
41.400 0.031498
42.200 0.030244
43.000 0.029087
44.100 0.027698
45.100 0.026431
46.000 0.025293
47.000 0.024148
48.000 0.023113
49.000 0.022032
50.000 0.021138
50.600 0.020875
51.200 0.021138
52.000 0.020412
53.000 0.019576
54.000 0.018611
55.000 0.017884
56.000 0.017383
57.000 0.016727
58.000 0.016026
59.000 0.015473
60.000 0.014842
61.000 0.014244
62.000 0.013839
63.000 0.013325
64.000 0.012875
65.000 0.012405
65.800 0.012013
66.500 0.011775
67.500 0.011395
68.500 0.010939
69.500 0.010650
70.500 0.010219
71.600 0.009942
72.600 0.009633
73.500 0.009363
74.500 0.009055
75.500 0.008765
76.500 0.008469
77.500 0.008238
78.500 0.007987
79.500 0.007756
80.500 0.007543
81.500 0.007331
82.500 0.007132
83.500 0.006855
84.500 0.006733
85.500 0.006540
86.500 0.006382
87.500 0.006213
88.500 0.006048
89.500 0.005887
90.500 0.005716
91.500 0.006862
92.500 0.009158
93.500 0.011318
94.500 0.014489
95.500 0.015563
96.500 0.017196
97.500 0.011904
98.500 0.017357
99.500 0.018547
100.500 0.018322
101.500 0.016045
102.500 0.011151
103.500 0.014907
104.500 0.018392
105.500 0.035723
106.500 0.067395
107.500 0.107910
108.500 0.133376
109.500 0.140129
110.500 0.189068
111.500 0.191447
112.500 0.175498
113.500 0.173955
114.500 0.139871
115.500 0.100514
116.500 0.067717
117.500 0.034418
118.500 0.017614
119.500 0.012508
120.500 0.011119
121.500 0.007672
122.500 0.010900
123.500 0.012161
124.500 0.016141
125.500 0.033325
126.500 0.060572
127.500 0.110932
128.500 0.172412
129.500 0.223408
130.500 0.254855
131.500 0.309518
132.500 0.351961
133.500 0.381350
134.500 0.422894
135.500 0.424309
136.500 0.443794
137.500 0.466945
138.500 0.485659
139.500 0.502894
140.500 0.505531
141.500 0.517685
142.500 0.520514
143.500 0.506302
144.200 0.541865
144.700 0.536527
145.500 0.553376
146.500 0.534598
147.500 0.547331
148.500 0.549839
149.500 0.554084
150.500 0.567653
151.200 0.566302
151.700 0.562572
152.500 0.557492
153.500 0.553955
154.500 0.569839
155.500 0.560579
156.500 0.525145
157.500 0.558907
158.500 0.575563
159.500 0.592412
160.500 0.560000
161.500 0.576592
162.500 0.549260
163.500 0.564695
164.500 0.587460
165.500 0.532862
166.500 0.602315
167.200 0.564309
167.700 0.583923
168.500 0.606559
169.500 0.585338
170.500 0.585080
171.500 0.602894
172.500 0.595048
173.500 0.612476
174.500 0.599228
175.500 0.614084
176.500 0.581929
177.500 0.607781
178.500 0.601865
179.500 0.615756
180.500 0.627588
181.500 0.623859
182.500 0.610547
183.500 0.614984
184.500 0.590932
185.500 0.604630
186.500 0.610418
187.500 0.611125
188.500 0.611190
189.500 0.614212
190.500 0.605466
191.500 0.609325
192.500 0.614084
193.500 0.594920
194.500 0.618135
195.500 0.616849
196.700 0.622122
197.600 0.610675
198.400 0.609260
199.500 0.607203
200.500 0.593891
201.500 0.589904
202.500 0.580579
203.500 0.600514
204.500 0.606431
205.500 0.594019
206.500 0.593119
207.400 0.610997
207.800 0.612412
208.500 0.609260
209.500 0.601350
210.500 0.596720
211.500 0.600579
212.500 0.598071
213.500 0.579807
214.500 0.599614
215.500 0.593762
216.500 0.576463
217.500 0.577556
218.500 0.586495
219.500 0.606302
220.500 0.590675
221.500 0.569453
222.500 0.574662
223.500 0.606752
224.500 0.588682
225.500 0.569711
226.500 0.559486
227.500 0.582830
228.500 0.590354
229.500 0.572219
230.500 0.585466
231.500 0.583151
232.500 0.537685
233.500 0.568746
234.500 0.529260
235.500 0.578328
236.500 0.538457
237.500 0.564502
238.500 0.512605
239.500 0.547267
240.500 0.540707
241.500 0.545466
242.500 0.578907
243.500 0.566238
244.500 0.580579
245.500 0.579164
246.500 0.572476
247.500 0.557556
248.500 0.554984
249.500 0.548746
250.500 0.589775
251.300 0.553633
251.800 0.536849
252.500 0.522894
253.500 0.530482
254.500 0.535434
255.500 0.567524
256.500 0.563151
257.500 0.585659
258.500 0.586945
259.500 0.579421
260.500 0.565723
261.500 0.552347
262.500 0.578457
263.500 0.593441
264.500 0.642058
265.500 0.650161
266.500 0.620965
267.500 0.637942
268.500 0.648232
269.500 0.621415
270.500 0.629003
271.500 0.602251
272.500 0.604759
273.500 0.622894
274.500 0.564244
275.500 0.584180
276.500 0.614791
277.500 0.634984
278.500 0.616013
279.500 0.468039
280.500 0.512090
281.500 0.651447
282.500 0.656592
283.500 0.647588
284.500 0.634277
285.500 0.592862
286.500 0.642572
287.500 0.645016
288.500 0.652090
289.500 0.655305
291.000 0.681029
293.000 0.670740
295.000 0.664952
297.000 0.670096
299.000 0.674598
301.000 0.677814
303.000 0.680386
305.000 0.684887
307.000 0.681029
309.000 0.681029
311.000 0.680386
313.000 0.678457
315.000 0.678457
317.000 0.685531
319.000 0.666238
321.000 0.679743
323.000 0.667524
325.000 0.688103
327.000 0.704180
329.000 0.705466
331.000 0.706752
332.200 0.557556
332.300 0.532476
332.400 0.529325
332.500 0.539486
332.600 0.539357
332.700 0.531447
332.800 0.545659
332.900 0.558328
333.000 0.574855
333.100 0.581929
333.200 0.574212
333.300 0.563794
333.400 0.548103
333.500 0.546752
333.600 0.539871
333.700 0.533119
333.800 0.539614
333.900 0.547974
334.000 0.555884
334.100 0.559100
334.200 0.556334
334.300 0.569968
334.400 0.584309
334.500 0.579807
334.600 0.566431
334.700 0.538585
334.800 0.517621
334.900 0.505080
335.000 0.525852
335.100 0.533762
335.200 0.522508
335.300 0.524051
335.400 0.534920
335.500 0.569968
335.600 0.579486
335.700 0.561286
335.800 0.522958
335.900 0.484887
336.000 0.461801
336.100 0.469068
336.200 0.496977
336.300 0.529839
336.400 0.552412
336.500 0.539678
336.600 0.525145
336.700 0.522701
336.800 0.520772
336.900 0.520129
337.000 0.494405
337.100 0.469904
337.200 0.461736
337.300 0.476527
337.400 0.499486
337.500 0.529453
337.600 0.551190
337.700 0.548810
337.800 0.532862
337.900 0.518971
338.000 0.519550
338.100 0.528617
338.200 0.532090
338.300 0.537299
338.400 0.546238
338.500 0.555434
338.600 0.552219
338.700 0.529068
338.800 0.512026
338.900 0.537299
339.000 0.560579
339.100 0.574148
339.200 0.559228
339.300 0.534727
339.400 0.544309
339.500 0.563730
339.600 0.581801
339.700 0.592605
339.800 0.601736
339.900 0.601929
340.000 0.595305
340.100 0.580386
340.200 0.559807
340.300 0.551833
340.400 0.545595
340.500 0.553955
340.600 0.556141
340.700 0.548103
340.800 0.534469
340.900 0.538392
341.000 0.559228
341.100 0.555113
341.200 0.547331
341.300 0.537556
341.400 0.538907
341.500 0.556913
341.600 0.564952
341.700 0.565466
341.800 0.569196
341.900 0.573376
342.000 0.582315
342.100 0.587395
342.200 0.574920
342.300 0.552797
342.400 0.541672
342.500 0.549325
342.600 0.555305
342.700 0.564630
342.800 0.580386
342.900 0.597235
343.000 0.608939
343.100 0.593312
343.200 0.570482
343.300 0.557492
343.400 0.566109
343.500 0.590740
343.600 0.598585
343.700 0.586431
343.800 0.571833
343.900 0.558971
344.000 0.553826
344.100 0.543280
344.200 0.536270
344.300 0.533955
344.400 0.540643
344.500 0.548746
344.600 0.562830
344.700 0.581286
344.800 0.594662
344.900 0.608489
345.000 0.597621
345.100 0.573762
345.200 0.551190
345.300 0.543730
345.400 0.556849
345.500 0.565402
345.600 0.566302
345.700 0.569196
345.800 0.567395
345.900 0.567331
346.000 0.556913
346.100 0.547267
346.200 0.553376
346.300 0.556334
346.400 0.559807
346.500 0.552283
346.600 0.554727
346.700 0.571833
346.800 0.594469
346.900 0.607781
347.000 0.610482
347.100 0.601672
347.200 0.590289
347.300 0.567717
347.400 0.550868
347.500 0.544566
347.600 0.548039
347.700 0.570225
347.800 0.587910
347.900 0.596141
348.000 0.605145
348.100 0.598521
348.200 0.590289
348.300 0.587395
348.400 0.588424
348.500 0.600965
348.600 0.613762
348.700 0.611640
348.800 0.599807
348.900 0.582572
349.000 0.571704
349.100 0.583473
349.200 0.598135
349.300 0.595305
349.400 0.589260
349.500 0.582315
349.600 0.575756
349.700 0.580257
349.800 0.572797
349.900 0.571254
350.000 0.568617
350.100 0.566109
350.200 0.574341
350.300 0.576785
350.400 0.576849
350.500 0.572926
350.600 0.569646
350.700 0.566881
350.800 0.559357
350.900 0.561029
351.000 0.562830
351.100 0.565209
351.200 0.563666
351.300 0.557556
351.400 0.559486
351.500 0.572219
351.600 0.596270
351.700 0.610225
351.800 0.610032
351.900 0.594405
352.000 0.583923
352.100 0.577685
352.200 0.571125
352.300 0.562444
352.400 0.552219
352.500 0.545016
352.600 0.549839
352.700 0.559871
352.800 0.573698
352.900 0.584887
353.000 0.596592
353.100 0.608296
353.200 0.603408
353.300 0.584437
353.400 0.574019
353.500 0.570354
353.600 0.587395
353.700 0.606174
353.800 0.611190
353.900 0.619228
354.000 0.617685
354.100 0.611511
354.200 0.613891
354.300 0.625595
354.400 0.632540
354.500 0.628103
354.600 0.622572
354.700 0.613826
354.800 0.608489
354.900 0.609196
355.000 0.617042
355.100 0.633119
355.200 0.628746
355.300 0.608360
355.400 0.595884
355.500 0.598971
355.600 0.612669
355.700 0.630225
355.800 0.638778
355.900 0.636141
356.000 0.629325
356.100 0.622894
356.200 0.615563
356.300 0.605273
356.400 0.594984
356.500 0.587588
356.600 0.584373
356.700 0.583859
356.800 0.577492
356.900 0.572540
357.000 0.568360
357.100 0.561286
357.200 0.559293
357.300 0.557428
357.400 0.560965
357.500 0.572476
357.600 0.580000
357.700 0.586367
357.800 0.594341
357.900 0.591447
358.000 0.579035
358.100 0.563859
358.200 0.552797
358.300 0.554920
358.400 0.552862
358.500 0.542444
358.600 0.526431
358.700 0.517428
358.800 0.528489
358.900 0.552412
359.000 0.572154
359.100 0.580193
359.200 0.576977
359.300 0.575370
359.400 0.579228
359.500 0.592347
359.600 0.603151
359.700 0.606302
359.800 0.607331
359.900 0.611190
360.000 0.613762
360.100 0.603215
360.200 0.592090
360.300 0.587524
360.400 0.593891
360.500 0.597363
360.600 0.594920
360.700 0.585659
360.800 0.578778
360.900 0.582186
361.000 0.583344
361.100 0.587267
361.200 0.594341
361.300 0.598006
361.400 0.603987
361.500 0.622186
361.600 0.626174
361.700 0.618135
361.800 0.599614
361.900 0.585273
362.000 0.594920
362.100 0.608360
362.200 0.614791
362.300 0.615820
362.400 0.621543
362.500 0.638971
362.600 0.659164
362.700 0.673312
362.800 0.663666
362.900 0.643087
363.000 0.613183
363.100 0.594019
363.200 0.601093
363.300 0.622637
363.400 0.629582
363.500 0.626238
363.600 0.622186
363.700 0.629196
363.800 0.640129
363.900 0.646302
364.000 0.648875
364.100 0.642251
364.200 0.630032
364.300 0.619807
364.400 0.613955
364.500 0.613633
364.600 0.612797
364.700 0.611383
364.800 0.612090
364.900 0.610161
365.000 0.608939
365.100 0.612283
365.200 0.625016
365.300 0.634791
365.400 0.647588
365.500 0.659807
365.600 0.668167
365.700 0.673955
365.800 0.672669
365.900 0.671383
366.000 0.670096
366.100 0.659807
366.200 0.648232
366.300 0.641801
366.400 0.645659
366.500 0.654662
366.600 0.656592
366.700 0.652733
366.800 0.641865
366.900 0.633762
367.000 0.633955
367.100 0.640836
367.200 0.654019
367.300 0.659807
367.400 0.655949
367.500 0.648875
367.600 0.632283
367.700 0.618585
367.800 0.612476
367.900 0.615048
368.000 0.623987
368.100 0.629904
368.200 0.628939
368.300 0.624630
368.400 0.622701
368.500 0.614791
368.600 0.613826
368.700 0.619486
368.800 0.639228
368.900 0.661736
369.000 0.657878
369.100 0.645659
369.200 0.640450
369.300 0.646302
369.400 0.657878
369.500 0.664952
369.600 0.655949
369.700 0.640643
369.800 0.650161
369.900 0.681672
370.000 0.715756
370.100 0.713826
370.200 0.670096
370.300 0.614405
370.400 0.585788
370.500 0.588875
370.600 0.613762
370.700 0.644373
370.800 0.662379
370.900 0.654662
371.000 0.624887
371.100 0.598521
371.200 0.586559
371.300 0.609582
371.400 0.661736
371.500 0.711254
371.600 0.746624
371.700 0.763344
371.800 0.746624
371.900 0.689389
372.000 0.610740
372.100 0.548039
372.200 0.531125
372.300 0.567138
372.400 0.643730
372.500 0.703537
372.600 0.740836
372.700 0.762058
372.800 0.770418
372.900 0.771704
373.000 0.760129
373.100 0.718971
373.200 0.645659
373.300 0.570868
373.400 0.507331
373.500 0.497428
373.600 0.541929
373.700 0.609646
373.800 0.682315
373.900 0.759486
374.000 0.797428
374.100 0.822508
374.200 0.817363
374.300 0.801929
374.400 0.773633
374.500 0.742765
374.600 0.710611
374.700 0.675884
374.800 0.619357
374.900 0.567460
375.000 0.541543
375.100 0.546109
375.200 0.587267
375.300 0.685531
375.400 0.760129
375.500 0.801929
375.600 0.824437
375.700 0.821222
375.800 0.814148
375.900 0.812862
376.000 0.822508
376.100 0.839228
376.200 0.841801
376.300 0.832797
376.400 0.822508
376.500 0.798071
376.600 0.772347
376.700 0.726688
376.800 0.653376
376.900 0.594405
377.000 0.540193
377.100 0.540193
377.200 0.589132
377.300 0.662379
377.400 0.713826
377.500 0.765916
377.600 0.796141
377.700 0.836013
377.800 0.879100
377.900 0.911897
378.000 0.949196
378.100 0.967846
378.200 0.975563
378.300 0.975563
378.400 0.975563
378.500 0.966559
378.600 0.956913
378.700 0.931190
378.800 0.912540
378.900 0.900965
379.000 0.886174
379.100 0.871383
379.200 0.835370
379.300 0.797428
379.400 0.742765
379.500 0.675884
379.600 0.604309
379.700 0.530032
379.800 0.505209
379.900 0.540900
380.000 0.618971
380.100 0.701608
380.200 0.780707
380.300 0.815434
380.400 0.861736
380.500 0.882315
380.600 0.904180
380.700 0.930547
380.800 0.951768
380.900 0.983280
381.000 1.003215
381.100 1.014791
381.200 1.005788
381.300 0.991640
381.400 0.978135
381.500 0.976849
381.600 0.996141
381.700 1.017363
381.800 1.018650
381.900 0.990997
382.000 0.968489
382.100 0.959486
382.200 0.963344
382.300 0.954984
382.400 0.926688
382.500 0.899678
382.600 0.872026
382.700 0.851447
382.800 0.818006
382.900 0.787781
383.000 0.760129
383.100 0.711897
383.200 0.666881
383.300 0.587395
383.400 0.524309
383.500 0.487010
383.600 0.489003
383.700 0.528232
383.800 0.593119
383.900 0.648232
384.000 0.705466
384.100 0.767846
384.200 0.819293
384.300 0.879743
384.400 0.912540
384.500 0.943408
384.600 0.972990
384.700 0.999357
384.800 1.018006
384.900 1.020579
385.000 1.025080
385.100 1.040514
385.200 1.068167
385.300 1.093891
385.400 1.099035
385.500 1.092605
385.600 1.079100
385.700 1.068167
385.800 1.058521
385.900 1.059164
386.000 1.074598
386.100 1.093891
386.200 1.109325
386.300 1.113826
386.400 1.105466
386.500 1.093248
386.600 1.092605
386.700 1.095820
386.800 1.099678
386.900 1.096463
387.000 1.078457
387.100 1.061736
387.200 1.032797
387.300 1.018006
387.400 1.010289
387.500 1.010932
387.600 1.004502
387.700 0.973633
387.800 0.946624
387.900 0.925402
388.000 0.920900
388.100 0.913183
388.200 0.884244
388.300 0.853376
388.400 0.801929
388.500 0.752412
388.600 0.682958
388.700 0.600064
388.800 0.542572
388.900 0.521608
389.000 0.554727
389.100 0.629904
389.200 0.702894
389.300 0.747910
389.400 0.794212
389.500 0.821865
389.600 0.864952
389.700 0.894534
389.800 0.917685
389.900 0.940836
390.000 0.956270
390.100 0.983923
390.200 1.001929
390.300 1.018006
390.400 1.022508
390.500 1.025723
390.600 1.044373
390.700 1.070740
390.800 1.102894
390.900 1.126688
391.000 1.140836
391.100 1.146624
391.200 1.145338
391.300 1.136977
391.400 1.125402
391.500 1.127331
391.600 1.136977
391.700 1.136334
391.800 1.131833
391.900 1.124759
392.000 1.123473
392.100 1.127331
392.200 1.129260
392.300 1.136334
392.400 1.137621
392.500 1.134405
392.600 1.115756
392.700 1.091318
392.800 1.052090
392.900 1.010932
393.000 0.945338
393.100 0.855305
393.200 0.736977
393.300 0.633183
393.400 0.622186
393.500 0.708039
393.600 0.830225
393.700 0.944051
393.800 1.031511
393.900 1.071383
394.000 1.093248
394.100 1.109325
394.200 1.115113
394.300 1.115113
394.400 1.112540
394.500 1.112540
394.600 1.117685
394.700 1.113183
394.800 1.100322
394.900 1.090032
395.000 1.086817
395.100 1.079743
395.200 1.072669
395.300 1.073955
395.400 1.066881
395.500 1.054662
395.600 1.037299
395.700 1.014791
395.800 1.005788
395.900 0.988424
396.000 0.960129
396.100 0.925402
396.200 0.876527
396.300 0.840514
396.400 0.787138
396.500 0.711897
396.600 0.608810
396.700 0.476399
396.800 0.388553
396.900 0.343151
397.000 0.375305
397.100 0.460707
397.200 0.567588
397.300 0.650161
397.400 0.735691
397.500 0.787781
397.600 0.845016
397.700 0.887460
397.800 0.926045
397.900 0.967846
398.000 0.985209
398.100 1.005788
398.200 1.021222
398.300 1.039228
398.400 1.061093
398.500 1.075884
398.600 1.095177
398.700 1.112540
398.800 1.131190
398.900 1.139550
399.000 1.142765
399.100 1.152412
399.200 1.156913
399.300 1.167203
399.400 1.174277
399.500 1.176849
399.600 1.169775
399.700 1.160129
399.800 1.156913
399.900 1.171704
400.000 1.187138
400.100 1.198071
400.200 1.199357
400.300 1.189068
400.400 1.178778
400.500 1.167203
400.600 1.171061
400.700 1.185852
400.800 1.203215
400.900 1.213505
401.000 1.219293
401.100 1.218650
401.200 1.215434
401.300 1.212862
401.400 1.211576
401.500 1.219936
401.600 1.227010
401.700 1.232154
401.800 1.240514
401.900 1.243087
402.000 1.243730
402.100 1.243087
402.200 1.239871
402.300 1.235370
402.400 1.227010
402.500 1.225080
402.600 1.228939
402.700 1.243087
402.800 1.246945
402.900 1.241158
403.000 1.225723
403.100 1.214791
403.200 1.209646
403.300 1.209646
403.400 1.218006
403.500 1.232797
403.600 1.250804
403.700 1.269453
403.800 1.268810
403.900 1.258521
404.000 1.248232
404.100 1.244373
404.200 1.249518
404.300 1.247588
404.400 1.224437
404.500 1.200000
404.600 1.190997
404.700 1.207074
404.800 1.230225
404.900 1.245016
405.000 1.245016
405.100 1.248875
405.200 1.248875
405.300 1.237299
405.400 1.221865
405.500 1.218006
405.600 1.223794
405.700 1.231511
405.800 1.234084
405.900 1.242444
406.000 1.248232
406.100 1.237299
406.200 1.212862
406.300 1.188424
406.400 1.180707
406.500 1.180707
406.600 1.182637
406.700 1.181994
406.800 1.183280
406.900 1.184566
407.000 1.172347
407.100 1.146624
407.200 1.135048
407.300 1.140836
407.400 1.150482
407.500 1.149839
407.600 1.130547
407.700 1.112540
407.800 1.104180
407.900 1.113826
408.000 1.127974
408.100 1.131190
408.200 1.129904
408.300 1.120257
408.400 1.111897
408.500 1.099035
408.600 1.090675
408.700 1.086817
408.800 1.079100
408.900 1.073955
409.000 1.054019
409.100 1.039228
409.200 1.030225
409.300 1.005145
409.400 0.985209
409.500 0.940836
409.600 0.905466
409.700 0.866881
409.800 0.814148
409.900 0.756270
410.000 0.659807
410.100 0.600643
410.200 0.584759
410.300 0.638842
410.400 0.713826
410.500 0.798071
410.600 0.837942
410.700 0.882315
410.800 0.911254
410.900 0.937621
411.000 0.972347
411.100 0.991640
411.200 1.018650
411.300 1.036656
411.400 1.055305
411.500 1.073955
411.600 1.086817
411.700 1.095177
411.800 1.096463
411.900 1.097749
412.000 1.100322
412.100 1.109968
412.200 1.121543
412.300 1.133119
412.400 1.145981
412.500 1.154341
412.600 1.157556
412.700 1.158842
412.800 1.159486
412.900 1.163987
413.000 1.161415
413.100 1.152412
413.200 1.147267
413.300 1.150482
413.400 1.166559
413.500 1.177492
413.600 1.186495
413.700 1.195498
413.800 1.205145
413.900 1.214791
414.000 1.212862
414.100 1.199357
414.200 1.183923
414.300 1.168489
414.400 1.171704
414.500 1.180707
414.600 1.192926
414.700 1.195498
414.800 1.197428
414.900 1.199357
415.000 1.203215
415.100 1.210289
415.200 1.209646
415.300 1.203859
415.400 1.195498
415.500 1.189068
