# Wavelength (nm)   F_lamA (normalized erg/cm2/s/A)9.100 0.000000
9.400 0.000001
9.600 0.000002
9.800 0.000003
10.000 0.000004
10.200 0.000007
10.400 0.000010
10.600 0.000015
10.800 0.000023
11.000 0.000033
11.400 0.000067
11.800 0.000130
12.100 0.000207
12.500 0.000369
12.700 0.000485
12.800 0.000554
13.100 0.000816
13.200 0.000924
13.400 0.001178
13.700 0.001670
14.000 0.002328
14.300 0.003195
14.700 0.004763
15.100 0.006933
15.500 0.009872
15.900 0.013774
16.200 0.017470
16.600 0.023629
17.000 0.031433
17.300 0.038565
17.700 0.050011
18.000 0.060264
18.200 0.067982
18.600 0.085758
19.100 0.112833
19.400 0.132018
19.800 0.161413
20.200 0.195513
20.500 0.224583
21.000 0.279861
21.600 0.358985
22.000 0.420334
22.300 0.470843
22.700 0.545198
23.000 28.311294
23.400 41.751572
24.000 80.164752
24.600 137.589421
25.200 188.532408
25.700 131.042705
26.000 217.429005
26.400 285.931064
26.900 289.182744
27.400 295.469326
27.900 282.029048
28.400 295.902883
29.000 292.217646
29.600 267.288099
30.100 173.011056
30.800 228.918274
31.800 293.951875
32.800 296.119662
33.800 287.882072
34.800 281.161934
35.700 288.098851
36.600 292.434424
37.500 287.448515
38.500 268.805550
39.500 278.560590
40.500 280.294819
41.400 276.392803
42.200 268.588771
43.000 264.469976
44.100 265.337091
45.100 260.567960
46.000 252.547149
47.000 247.344461
48.000 245.176675
49.000 236.505528
50.000 235.855192
50.600 235.638413
51.200 257.966616
52.000 252.980707
53.000 248.645133
54.000 236.505528
55.000 231.302840
56.000 235.638413
57.000 232.169954
58.000 225.666594
59.000 223.065250
60.000 216.453501
61.000 208.974637
62.000 209.538261
63.000 204.205506
64.000 201.929330
65.000 196.726642
65.800 191.285498
66.500 191.350531
67.500 188.142207
68.500 181.292001
69.500 180.489920
70.500 173.336224
71.600 172.859311
72.600 169.781054
73.500 166.724474
74.500 162.692391
75.500 158.963798
76.500 154.281379
77.500 152.482116
78.500 148.753523
79.500 145.957078
80.500 143.659224
81.500 140.906135
82.500 138.283113
83.500 132.885324
84.500 132.625190
85.500 129.503577
86.500 127.574247
87.500 125.102970
88.500 122.523304
89.500 119.943638
90.500 116.735313
91.500 123.737264
92.500 158.248428
93.500 185.692608
94.500 217.862562
95.500 224.799480
96.500 242.358552
97.500 193.236506
98.500 232.386733
99.500 217.645784
100.500 223.065250
101.500 215.543031
102.500 172.274008
103.500 203.771949
104.500 203.793627
105.500 199.046174
106.500 191.784088
107.500 188.163885
108.500 176.327769
109.500 179.969651
110.500 174.680251
111.500 170.496423
112.500 164.600043
113.500 162.779103
114.500 158.616952
115.500 154.281379
116.500 150.509430
117.500 141.231303
118.500 143.290700
119.500 139.475396
120.500 134.749621
121.500 110.990679
122.500 128.398006
123.500 126.598743
124.500 123.845654
125.500 122.111424
126.500 119.358335
127.500 116.800347
128.500 114.242359
129.500 111.250813
130.500 108.822892
131.500 106.741817
132.500 104.162150
133.500 101.820941
134.500 99.869933
135.500 97.593757
136.500 95.252547
137.500 92.846304
138.500 91.242142
139.500 86.516367
140.500 83.221331
141.500 85.605896
142.500 83.633210
143.500 82.094082
144.200 80.685021
144.700 79.861262
145.500 78.473878
146.500 76.913072
147.500 75.417299
148.500 74.029915
149.500 72.469109
150.500 71.016692
151.200 70.019510
151.700 69.260785
152.500 68.133536
153.500 66.420984
154.500 63.754607
155.500 62.800780
156.500 62.540646
157.500 61.500108
158.500 60.372859
159.500 59.202254
160.500 57.771515
161.500 56.665944
162.500 55.538695
163.500 53.869499
164.500 51.484934
165.500 52.677217
166.500 51.723390
167.200 50.856276
167.700 50.682853
168.500 49.902450
169.500 48.970301
170.500 48.016475
171.500 46.802515
172.500 46.152179
173.500 45.523520
174.500 44.656406
175.500 43.810969
176.500 43.030566
177.500 42.315196
178.500 41.578149
179.500 40.819423
180.500 40.125732
181.500 39.410362
182.500 38.716670
183.500 38.044656
184.500 37.329287
185.500 36.657273
186.500 36.050293
187.500 35.464990
188.500 34.792976
189.500 34.185996
190.500 33.665727
191.500 33.058747
192.500 32.451767
193.500 31.996532
194.500 31.476263
195.500 30.890960
196.700 30.349014
197.600 29.915456
198.400 29.503577
199.500 28.939952
200.500 28.506395
201.500 28.051160
202.500 27.617602
203.500 27.162367
204.500 26.707132
205.500 22.414914
206.500 23.238673
207.400 25.449816
207.800 25.514849
208.500 25.298071
209.500 24.994581
210.500 24.582701
211.500 24.322567
212.500 23.910687
213.500 23.542163
214.500 23.151962
215.500 22.956861
216.500 22.414914
217.500 22.263169
218.500 21.721223
219.500 21.599827
220.500 21.268155
221.500 20.724041
222.500 20.632994
223.500 20.327336
224.500 20.023846
225.500 19.481899
226.500 19.432040
227.500 19.145892
228.500 18.861912
229.500 18.497724
230.500 18.057663
231.500 18.046824
232.500 17.708649
233.500 17.528723
234.500 17.270757
235.500 17.030132
236.500 16.783005
237.500 16.544548
238.500 16.037286
239.500 16.074138
240.500 15.848688
241.500 15.627574
242.500 15.412963
243.500 15.196185
244.500 14.985909
245.500 14.777802
246.500 14.576198
247.500 14.374594
248.500 14.179493
249.500 13.819640
250.500 13.763278
251.300 13.063083
251.800 13.529157
252.500 13.414264
253.500 13.240841
254.500 13.060915
255.500 12.889660
256.500 12.718405
257.500 12.551485
258.500 12.384565
259.500 12.217646
260.500 12.063733
261.500 11.903317
262.500 11.749404
263.500 11.595491
264.500 11.452417
265.500 11.302840
266.500 11.153263
267.500 11.008021
268.500 10.877954
269.500 10.726209
270.500 10.600477
271.500 10.463906
272.500 10.316497
273.500 10.000000
274.500 10.071537
275.500 9.945805
276.500 9.807067
277.500 9.703013
278.500 9.583785
279.500 9.453718
280.500 9.343161
281.500 9.234771
282.500 9.104704
283.500 9.000650
284.500 8.896597
285.500 8.788207
286.500 8.684153
287.500 8.577932
288.500 8.476046
289.500 8.374160
291.000 8.224583
293.000 8.029482
295.000 7.830046
297.000 7.658790
299.000 7.478864
301.000 7.281595
303.000 7.090830
305.000 6.904401
307.000 6.726642
309.000 6.551051
311.000 6.384132
313.000 6.223716
315.000 6.065467
317.000 5.915890
319.000 5.755474
321.000 5.573380
323.000 5.493171
325.000 5.360936
327.000 5.230869
329.000 5.107305
331.000 4.985909
332.200 4.630392
332.300 4.652070
332.400 4.626057
332.500 4.602211
332.600 4.567527
332.700 4.541513
332.800 4.517667
332.900 4.517667
333.000 4.522003
333.100 4.515500
333.200 4.500325
333.300 4.472144
333.400 4.456969
333.500 4.450466
333.600 4.426620
333.700 4.413614
333.800 4.409278
333.900 4.387600
334.000 4.361587
334.100 4.370258
334.200 4.387600
334.300 4.476480
334.400 4.524171
334.500 4.563191
334.600 4.593540
334.700 4.602211
334.800 4.545849
334.900 4.456969
335.000 4.283546
335.100 4.270540
335.200 4.303057
335.300 4.313896
335.400 4.309560
335.500 4.296553
335.600 4.311728
335.700 4.337741
335.800 4.355083
335.900 4.361587
336.000 4.363755
336.100 4.361587
336.200 4.359419
336.300 4.329070
336.400 4.305224
336.500 4.257533
336.600 4.238023
336.700 4.220681
336.800 4.222848
336.900 4.231520
337.000 4.257533
337.100 4.259701
337.200 4.222848
337.300 4.220681
337.400 4.233687
337.500 4.255365
337.600 4.261869
337.700 4.227184
337.800 4.218513
337.900 4.225016
338.000 4.264036
338.100 4.294385
338.200 4.294385
338.300 4.285714
338.400 4.266204
338.500 4.296553
338.600 4.337741
338.700 4.368090
338.800 4.368090
338.900 4.313896
339.000 4.287882
339.100 4.274875
339.200 4.303057
339.300 4.326902
339.400 4.387600
339.500 4.381097
339.600 4.331238
339.700 4.268372
339.800 4.220681
339.900 4.125298
340.000 4.099285
340.100 4.114459
340.200 4.105788
340.300 4.094949
340.400 4.114459
340.500 4.120962
340.600 4.110124
340.700 4.112291
340.800 4.123130
340.900 4.136137
341.000 4.136137
341.100 4.081942
341.200 4.077607
341.300 4.107956
341.400 4.142640
341.500 4.168654
341.600 4.164318
341.700 4.155647
341.800 4.149144
341.900 4.144808
342.000 4.142640
342.100 4.151312
342.200 4.157815
342.300 4.168654
342.400 4.164318
342.500 4.149144
342.600 4.149144
342.700 4.151312
342.800 4.175157
342.900 4.168654
343.000 4.133969
343.100 4.125298
343.200 4.123130
343.300 4.127466
343.400 4.133969
343.500 4.155647
343.600 4.157815
343.700 4.153479
343.800 4.123130
343.900 4.097117
344.000 4.036419
344.100 4.021244
344.200 4.025580
344.300 4.062432
344.400 4.084110
344.500 4.042922
344.600 4.025580
344.700 4.014741
344.800 4.045090
344.900 4.071103
345.000 3.980056
345.100 3.932365
345.200 3.915023
345.300 3.921526
345.400 3.938868
345.500 3.934533
345.600 3.930197
345.700 3.921526
345.800 3.917191
345.900 3.908519
346.000 3.906352
346.100 3.906352
346.200 3.934533
346.300 4.062432
346.400 3.999566
346.500 3.986560
346.600 4.001734
346.700 3.993063
346.800 3.971385
346.900 3.977889
347.000 3.986560
347.100 3.912855
347.200 3.902016
347.300 3.960546
347.400 3.958378
347.500 3.936701
347.600 3.893345
347.700 3.806633
347.800 3.728593
347.900 3.715586
348.000 3.763278
348.100 3.826144
348.200 3.802298
348.300 3.745935
348.400 3.758942
348.500 3.847821
348.600 3.871667
348.700 3.891177
348.800 3.945372
348.900 3.964882
349.000 3.930197
349.100 3.921526
349.200 3.958378
349.300 3.951875
349.400 3.949707
349.500 3.932365
349.600 3.882506
349.700 3.886842
349.800 3.910687
349.900 3.923694
350.000 3.891177
350.100 3.806633
350.200 3.804466
350.300 3.823976
350.400 3.793627
350.500 3.741600
350.600 3.728593
350.700 3.752439
350.800 3.774117
350.900 3.767613
351.000 3.763278
351.100 3.767613
351.200 3.758942
351.300 3.745935
351.400 3.758942
351.500 3.758942
351.600 3.774117
351.700 3.739432
351.800 3.728593
351.900 3.739432
352.000 3.748103
352.100 3.745935
352.200 3.735096
352.300 3.726425
352.400 3.763278
352.500 3.711251
352.600 3.709083
352.700 3.717754
352.800 3.735096
352.900 3.750271
353.000 3.756774
353.100 3.778452
353.200 3.797962
353.300 3.761110
353.400 3.706915
353.500 3.696076
353.600 3.702580
353.700 3.667895
353.800 3.661392
353.900 3.661392
354.000 3.693909
354.100 3.719922
354.200 3.713419
354.300 3.691741
354.400 3.689573
354.500 3.693909
354.600 3.676566
354.700 3.693909
354.800 3.722090
354.900 3.726425
355.000 3.693909
355.100 3.672231
355.200 3.689573
355.300 3.719922
355.400 3.722090
355.500 3.696076
355.600 3.663560
355.700 3.665727
355.800 3.680902
355.900 3.678734
356.000 3.670063
356.100 3.683070
356.200 3.702580
356.300 3.683070
356.400 3.659224
356.500 3.693909
356.600 3.724258
356.700 3.683070
356.800 3.680902
356.900 3.654888
357.000 3.600694
357.100 3.522653
357.200 3.531325
357.300 3.544331
357.400 3.529157
357.500 3.524821
357.600 3.539996
357.700 3.542163
357.800 3.531325
357.900 3.511814
358.000 3.522653
358.100 3.542163
358.200 3.537828
358.300 3.531325
358.400 3.529157
358.500 3.533492
358.600 3.544331
358.700 3.539996
358.800 3.520486
358.900 3.500976
359.000 3.522653
359.100 3.531325
359.200 3.507479
359.300 3.505311
359.400 3.507479
359.500 3.492304
359.600 3.477130
359.700 3.479298
359.800 3.485801
359.900 3.503143
360.000 3.542163
360.100 3.537828
360.200 3.537828
360.300 3.516150
360.400 3.494472
360.500 3.492304
360.600 3.490137
360.700 3.487969
360.800 3.505311
360.900 3.520486
361.000 3.509647
361.100 3.457620
361.200 3.461955
361.300 3.459788
361.400 3.438110
361.500 3.433774
361.600 3.448949
361.700 3.461955
361.800 3.479298
361.900 3.483633
362.000 3.442445
362.100 3.431606
362.200 3.466291
362.300 3.468459
362.400 3.444613
362.500 3.438110
362.600 3.457620
362.700 3.459788
362.800 3.429439
362.900 3.414264
363.000 3.438110
363.100 3.468459
363.200 3.464123
363.300 3.451116
363.400 3.474962
363.500 3.461955
363.600 3.381747
363.700 3.349230
363.800 3.347063
363.900 3.340559
364.000 3.347063
364.100 3.377412
364.200 3.392586
364.300 3.360069
364.400 3.312378
364.500 3.301539
364.600 3.316714
364.700 3.325385
364.800 3.336224
364.900 3.344895
365.000 3.340559
365.100 3.318881
365.200 3.308042
365.300 3.299371
365.400 3.288532
365.500 3.301539
365.600 3.303707
365.700 3.290700
365.800 3.290700
365.900 3.288532
366.000 3.277693
366.100 3.266855
366.200 3.262519
366.300 3.277693
366.400 3.288532
366.500 3.279861
366.600 3.271190
366.700 3.251680
366.800 3.243009
366.900 3.249512
367.000 3.260351
367.100 3.256016
367.200 3.243009
367.300 3.232170
367.400 3.227834
367.500 3.230002
367.600 3.251680
367.700 3.227834
367.800 3.219163
367.900 3.221331
368.000 3.221331
368.100 3.225667
368.200 3.227834
368.300 3.221331
368.400 3.203989
368.500 3.206157
368.600 3.214828
368.700 3.210492
368.800 3.210492
368.900 3.221331
369.000 3.210492
369.100 3.197485
369.200 3.214828
369.300 3.225667
369.400 3.188814
369.500 3.171472
369.600 3.169304
369.700 3.158465
369.800 3.149794
369.900 3.162801
370.000 3.190982
370.100 3.171472
370.200 3.123781
370.300 3.091264
370.400 3.082593
370.500 3.091264
370.600 3.108606
370.700 3.125948
370.800 3.119445
370.900 3.108606
371.000 3.086928
371.100 3.058747
371.200 3.037069
371.300 3.037069
371.400 3.071754
371.500 3.115109
371.600 3.119445
371.700 3.097767
371.800 3.097767
371.900 3.041405
372.000 2.978539
372.100 2.956861
372.200 2.967700
372.300 3.004552
372.400 3.019727
372.500 3.006720
372.600 3.006720
372.700 3.034901
372.800 3.060915
372.900 3.065250
373.000 3.065250
373.100 3.028398
373.200 2.987210
373.300 2.928680
373.400 2.880989
373.500 2.874485
373.600 2.902666
373.700 2.943854
373.800 3.000217
373.900 3.052244
374.000 3.082593
374.100 3.097767
374.200 3.080425
374.300 3.039237
374.400 3.030566
374.500 3.026230
374.600 2.991546
374.700 2.935183
374.800 2.857143
374.900 2.785606
375.000 2.772599
375.100 2.811619
375.200 2.854975
375.300 2.878821
375.400 2.902666
375.500 2.943854
375.600 2.961197
375.700 2.950358
375.800 2.939519
375.900 2.928680
376.000 2.915673
376.100 2.904834
376.200 2.974203
376.300 3.004552
376.400 2.980707
376.500 2.939519
376.600 2.893995
376.700 2.839801
376.800 2.779103
376.900 2.707566
377.000 2.636029
377.100 2.627357
377.200 2.690223
377.300 2.770431
377.400 2.835465
377.500 2.885324
377.600 2.907002
377.700 2.917841
377.800 2.917841
377.900 2.907002
378.000 2.904834
378.100 2.911338
378.200 2.926512
378.300 2.917841
378.400 2.907002
378.500 2.937351
378.600 2.954693
378.700 2.939519
378.800 2.920009
378.900 2.896163
379.000 2.867982
379.100 2.848472
379.200 2.841968
379.300 2.833297
379.400 2.781270
379.500 2.720572
379.600 2.618686
379.700 2.527639
379.800 2.503794
379.900 2.562324
380.000 2.666378
380.100 2.757425
380.200 2.792109
380.300 2.820290
380.400 2.839801
380.500 2.874485
380.600 2.854975
380.700 2.857143
380.800 2.872317
380.900 2.874485
381.000 2.880989
381.100 2.883156
381.200 2.867982
381.300 2.865814
381.400 2.876653
381.500 2.870150
381.600 2.850639
381.700 2.859311
381.800 2.852807
381.900 2.852807
382.000 2.839801
382.100 2.824626
382.200 2.833297
382.300 2.844136
382.400 2.841968
382.500 2.837633
382.600 2.813787
382.700 2.826794
382.800 2.826794
382.900 2.789941
383.000 2.740082
383.100 2.690223
383.200 2.625190
383.300 2.534143
383.400 2.432257
383.500 2.360720
383.600 2.380230
383.700 2.477780
383.800 2.575331
383.900 2.649035
384.000 2.698894
384.100 2.722740
384.200 2.748754
384.300 2.783438
384.400 2.822458
384.500 2.850639
384.600 2.824626
384.700 2.813787
384.800 2.805116
384.900 2.822458
385.000 2.818123
385.100 2.826794
385.200 2.833297
385.300 2.822458
385.400 2.807284
385.500 2.794277
385.600 2.779103
385.700 2.757425
385.800 2.750921
385.900 2.792109
386.000 2.809452
386.100 2.826794
386.200 2.802948
386.300 2.770431
386.400 2.746586
386.500 2.731411
386.600 2.737915
386.700 2.759592
386.800 2.774767
386.900 2.763928
387.000 2.740082
387.100 2.729243
387.200 2.727076
387.300 2.733579
387.400 2.740082
387.500 2.737915
387.600 2.727076
387.700 2.716237
387.800 2.724908
387.900 2.731411
388.000 2.740082
388.100 2.716237
388.200 2.688055
388.300 2.659874
388.400 2.631693
388.500 2.573163
388.600 2.469109
388.700 2.341210
388.800 2.219814
388.900 2.182961
389.000 2.274008
389.100 2.436592
389.200 2.538478
389.300 2.616519
389.400 2.649035
389.500 2.677217
389.600 2.698894
389.700 2.709733
389.800 2.716237
389.900 2.718405
390.000 2.727076
390.100 2.733579
390.200 2.733579
390.300 2.737915
390.400 2.742250
390.500 2.746586
390.600 2.733579
390.700 2.735747
390.800 2.761760
390.900 2.755257
391.000 2.724908
391.100 2.729243
391.200 2.746586
391.300 2.735747
391.400 2.737915
391.500 2.750921
391.600 2.746586
391.700 2.740082
391.800 2.724908
391.900 2.701062
392.000 2.690223
392.100 2.679384
392.200 2.655539
392.300 2.616519
392.400 2.616519
392.500 2.646868
392.600 2.666378
392.700 2.677217
392.800 2.681552
392.900 2.681552
393.000 2.677217
393.100 2.629525
393.200 2.440928
393.300 2.137654
393.400 2.180793
393.500 2.484284
393.600 2.633861
393.700 2.679384
393.800 2.681552
393.900 2.668545
394.000 2.666378
394.100 2.675049
394.200 2.672881
394.300 2.655539
394.400 2.646868
394.500 2.612183
394.600 2.597008
394.700 2.601344
394.800 2.605680
394.900 2.610015
395.000 2.610015
395.100 2.599176
395.200 2.588337
395.300 2.586170
395.400 2.579666
395.500 2.568827
395.600 2.555821
395.700 2.542814
395.800 2.536310
395.900 2.540646
396.000 2.547149
396.100 2.547149
396.200 2.534143
396.300 2.501626
396.400 2.458270
396.500 2.423586
396.600 2.332538
396.700 2.091264
396.800 1.827011
396.900 1.786256
397.000 1.898548
397.100 2.046174
397.200 2.185129
397.300 2.300022
397.400 2.362887
397.500 2.406243
397.600 2.445263
397.700 2.451767
397.800 2.451767
397.900 2.471277
398.000 2.477780
398.100 2.488619
398.200 2.495122
398.300 2.479948
398.400 2.473445
398.500 2.473445
398.600 2.414914
398.700 2.336874
398.800 2.445263
398.900 2.479948
399.000 2.492955
399.100 2.503794
399.200 2.505961
399.300 2.499458
399.400 2.490787
399.500 2.490787
399.600 2.479948
399.700 2.479948
399.800 2.482116
399.900 2.486451
400.000 2.462606
400.100 2.456102
400.200 2.462606
400.300 2.462606
400.400 2.460438
400.500 2.464773
400.600 2.462606
400.700 2.458270
400.800 2.464773
400.900 2.464773
401.000 2.456102
401.100 2.460438
401.200 2.464773
401.300 2.462606
401.400 2.464773
401.500 2.458270
401.600 2.447431
401.700 2.453935
401.800 2.466941
401.900 2.471277
402.000 2.462606
402.100 2.447431
402.200 2.447431
402.300 2.427921
402.400 2.384565
402.500 2.339042
402.600 2.326035
402.700 2.360720
402.800 2.406243
402.900 2.434424
403.000 2.453935
403.100 2.453935
403.200 2.449599
403.300 2.445263
403.400 2.447431
403.500 2.453935
403.600 2.453935
403.700 2.445263
403.800 2.436592
403.900 2.427921
404.000 2.436592
404.100 2.456102
404.200 2.453935
404.300 2.447431
404.400 2.445263
404.500 2.438760
404.600 2.434424
404.700 2.438760
404.800 2.447431
404.900 2.447431
405.000 2.432257
405.100 2.432257
405.200 2.451767
405.300 2.447431
405.400 2.449599
405.500 2.453935
405.600 2.445263
405.700 2.445263
405.800 2.449599
405.900 2.447431
406.000 2.443096
406.100 2.425753
406.200 2.414914
406.300 2.423586
406.400 2.360720
406.500 2.213310
406.600 2.267505
406.700 2.347713
406.800 2.354216
406.900 2.343377
407.000 2.334706
407.100 2.341210
407.200 2.356384
407.300 2.341210
407.400 2.341210
407.500 2.336874
407.600 2.328203
407.700 2.330371
407.800 2.339042
407.900 2.349881
408.000 2.354216
408.100 2.347713
408.200 2.339042
408.300 2.341210
408.400 2.323867
408.500 2.323867
408.600 2.321700
408.700 2.339042
408.800 2.356384
408.900 2.352049
409.000 2.330371
409.100 2.313028
409.200 2.308693
409.300 2.291351
409.400 2.265337
409.500 2.221981
409.600 2.193800
409.700 2.159116
409.800 2.088012
409.900 1.989811
410.000 1.881856
410.100 1.798613
410.200 1.789508
410.300 1.876436
410.400 2.022111
410.500 2.132452
410.600 2.182961
410.700 2.206807
410.800 2.232820
410.900 2.243659
411.000 2.252330
411.100 2.263169
411.200 2.267505
411.300 2.271840
411.400 2.291351
411.500 2.317364
411.600 2.326035
411.700 2.310861
411.800 2.280512
411.900 2.269673
412.000 2.280512
412.100 2.284847
412.200 2.278344
412.300 2.278344
412.400 2.278344
412.500 2.282679
412.600 2.287015
412.700 2.282679
412.800 2.267505
412.900 2.271840
413.000 2.280512
413.100 2.284847
413.200 2.278344
