# Wavelength (nm)   F_lamA (normalized erg/cm2/s/A)9.100 0.000002
9.400 0.000004
9.600 0.000007
9.800 0.000011
10.000 0.000017
10.200 0.000028
10.400 0.000043
10.600 0.000065
10.800 0.000097
11.000 0.000143
11.400 0.000296
11.800 0.000579
12.100 0.000926
12.500 0.001668
12.700 0.002202
12.800 0.002522
13.100 0.003732
13.200 0.004234
13.400 0.005414
13.700 0.007708
14.000 0.010786
14.300 0.014844
14.700 0.022204
15.100 0.032388
15.500 0.046200
15.900 0.064521
16.200 0.081821
16.600 0.110579
17.000 0.146909
17.300 0.179921
17.700 0.232757
18.000 0.279807
18.200 0.315088
18.600 0.395632
19.100 0.517584
19.400 0.602950
19.800 0.732842
20.200 0.882019
20.500 1.007374
21.000 1.244470
21.600 1.577425
22.000 1.830686
22.300 2.037720
22.700 2.337493
23.000 82.331254
23.400 95.433919
24.000 124.588769
24.600 166.052184
25.200 208.678389
25.700 173.057289
26.000 230.657969
26.400 276.971072
26.900 282.076007
27.400 289.563244
27.900 275.155984
28.400 295.235394
29.000 293.533749
29.600 273.255814
30.100 199.376064
30.800 230.516166
31.800 278.956324
32.800 281.055020
33.800 272.036302
34.800 264.946115
35.700 272.546795
36.600 281.622235
37.500 276.715825
38.500 257.288712
39.500 268.604651
40.500 272.064663
41.400 268.150879
42.200 260.181509
43.000 254.736245
44.100 257.175269
45.100 252.949518
46.000 244.072604
47.000 238.910947
48.000 237.067499
49.000 227.509926
50.000 227.708452
50.600 223.652864
51.200 241.973908
52.000 236.358480
53.000 230.629609
54.000 217.385139
55.000 210.692002
56.000 217.016449
57.000 213.613159
58.000 207.345434
59.000 204.480998
60.000 197.362450
61.000 189.364719
62.000 191.094725
63.000 185.195689
64.000 183.380601
65.000 177.992059
65.800 172.603517
66.500 172.887124
67.500 169.795803
68.500 162.790698
69.500 162.280204
70.500 154.963131
71.600 154.963131
72.600 152.098695
73.500 149.177538
74.500 145.178673
75.500 141.491775
76.500 136.670448
77.500 135.337493
78.500 131.593874
79.500 129.211571
80.500 127.112876
81.500 124.617130
82.500 122.121384
83.500 116.761202
84.500 116.874645
85.500 113.896767
86.500 112.195122
87.500 109.982984
88.500 107.515598
89.500 105.190017
90.500 102.325581
91.500 109.132161
92.500 139.166194
93.500 164.180374
94.500 193.391946
95.500 201.162791
96.500 217.073171
97.500 169.540556
98.500 207.969370
99.500 194.866704
100.500 199.659671
101.500 193.023256
102.500 153.204765
103.500 182.671583
104.500 185.025525
105.500 180.828134
106.500 173.284175
107.500 170.873511
108.500 160.153148
109.500 163.840045
110.500 158.735111
111.500 155.019853
112.500 149.205899
113.500 148.298355
114.500 144.271129
115.500 140.499149
116.500 137.010777
117.500 127.339762
118.500 130.232558
119.500 126.460579
120.500 121.724334
121.500 99.262621
122.500 116.108905
123.500 115.229722
124.500 112.932501
125.500 111.486103
126.500 109.047079
127.500 106.920023
128.500 104.679524
129.500 101.673284
130.500 99.489507
131.500 97.929665
132.500 95.433919
133.500 93.278503
134.500 91.690301
135.500 89.534884
136.500 87.237663
137.500 85.025525
138.500 83.664209
139.500 78.644356
140.500 75.127623
141.500 78.615995
142.500 76.630743
143.500 75.467952
144.200 74.106636
144.700 73.369257
145.500 72.036302
146.500 70.646625
147.500 69.313670
148.500 68.150879
149.500 66.676120
150.500 65.343165
151.200 64.435621
151.700 63.726602
152.500 62.705615
153.500 60.833806
154.500 58.054453
155.500 57.260352
156.500 57.345434
157.500 56.551333
158.500 55.530346
159.500 54.509359
160.500 53.034600
161.500 52.013613
162.500 51.020987
163.500 49.688032
164.500 47.646058
165.500 48.553602
166.500 47.759501
167.200 46.795235
167.700 46.880318
168.500 46.142938
169.500 45.292116
170.500 44.384572
171.500 43.221781
172.500 42.597845
173.500 42.144073
174.500 41.321611
175.500 40.555871
176.500 39.818491
177.500 39.194555
178.500 38.542258
179.500 37.833239
180.500 37.209302
181.500 36.528644
182.500 35.904708
183.500 35.309132
184.500 34.600113
185.500 33.947816
186.500 33.408962
187.500 32.898469
188.500 32.246171
189.500 31.650596
190.500 31.253545
191.500 30.657969
192.500 30.034033
193.500 29.693704
194.500 29.268293
195.500 28.644356
196.700 28.210437
197.600 27.844583
198.400 27.427680
199.500 26.880318
200.500 26.531480
201.500 26.128758
202.500 25.734543
203.500 25.286444
204.500 24.872377
205.500 21.157119
206.500 21.826432
207.400 23.749291
207.800 23.760635
208.500 23.550766
209.500 23.241634
210.500 22.889960
211.500 22.648894
212.500 22.297221
213.500 21.939875
214.500 21.582530
215.500 21.403857
216.500 20.887691
217.500 20.757232
218.500 20.269427
219.500 20.150312
220.500 19.841180
221.500 19.350539
222.500 19.248440
223.500 18.970505
224.500 18.689733
225.500 18.204765
226.500 18.145207
227.500 17.881452
228.500 17.614861
229.500 17.266024
230.500 16.891662
231.500 16.857629
232.500 16.483267
233.500 16.378332
234.500 16.137266
235.500 15.918888
236.500 15.686330
237.500 15.467952
238.500 15.008508
239.500 15.025525
240.500 14.818491
241.500 14.617130
242.500 14.424277
243.500 14.220079
244.500 14.027226
245.500 13.828701
246.500 13.644356
247.500 13.460011
248.500 13.278503
249.500 12.892796
250.500 12.895632
251.300 12.280204
251.800 12.663074
252.500 12.560976
253.500 12.404991
254.500 12.237663
255.500 12.084515
256.500 11.922859
257.500 11.772547
258.500 11.616563
259.500 11.457742
260.500 11.315939
261.500 11.165627
262.500 11.026659
263.500 10.884855
264.500 10.754396
265.500 10.615428
266.500 10.476461
267.500 10.340329
268.500 10.224050
269.500 10.076574
270.500 9.965967
271.500 9.838344
272.500 9.696540
273.500 9.421441
274.500 9.466818
275.500 9.350539
276.500 9.222915
277.500 9.129325
278.500 9.015882
279.500 8.882587
280.500 8.786160
281.500 8.692569
282.500 8.570618
283.500 8.471356
284.500 8.377765
285.500 8.278503
286.500 8.179240
287.500 8.082813
288.500 7.986387
289.500 7.889960
291.000 7.753829
293.000 7.572320
295.000 7.382303
297.000 7.223483
299.000 7.056154
301.000 6.874645
303.000 6.693137
305.000 6.522972
307.000 6.358480
309.000 6.199660
311.000 6.043676
313.000 5.893364
315.000 5.745888
317.000 5.606920
319.000 5.456608
321.000 5.292116
323.000 5.212706
325.000 5.087918
327.000 4.965967
329.000 4.852524
331.000 4.739081
332.200 4.475326
332.300 4.500851
332.400 4.472490
332.500 4.452638
332.600 4.415769
332.700 4.393080
332.800 4.373227
332.900 4.373227
333.000 4.378900
333.100 4.373227
333.200 4.356211
333.300 4.327850
333.400 4.310834
333.500 4.302326
333.600 4.282473
333.700 4.268293
333.800 4.256948
333.900 4.234260
334.000 4.211571
334.100 4.225752
334.200 4.242768
334.300 4.325014
334.400 4.367555
334.500 4.401588
334.600 4.432785
334.700 4.444129
334.800 4.393080
334.900 4.310834
335.000 4.146341
335.100 4.137833
335.200 4.166194
335.300 4.174702
335.400 4.169030
335.500 4.152014
335.600 4.166194
335.700 4.191719
335.800 4.211571
335.900 4.220079
336.000 4.225752
336.100 4.225752
336.200 4.222915
336.300 4.191719
336.400 4.163358
336.500 4.120817
336.600 4.098128
336.700 4.081112
336.800 4.083948
336.900 4.092456
337.000 4.126489
337.100 4.126489
337.200 4.089620
337.300 4.083948
337.400 4.092456
337.500 4.120817
337.600 4.126489
337.700 4.086784
337.800 4.078276
337.900 4.083948
338.000 4.123653
338.100 4.152014
338.200 4.157686
338.300 4.152014
338.400 4.132161
338.500 4.160522
338.600 4.191719
338.700 4.214407
338.800 4.214407
338.900 4.166194
339.000 4.146341
339.100 4.137833
339.200 4.160522
339.300 4.183210
339.400 4.234260
339.500 4.231424
339.600 4.186047
339.700 4.123653
339.800 4.075440
339.900 3.987521
340.000 3.964833
340.100 3.987521
340.200 3.976177
340.300 3.964833
340.400 3.979013
340.500 3.984685
340.600 3.973341
340.700 3.976177
340.800 3.990357
340.900 4.001702
341.000 4.004538
341.100 3.947816
341.200 3.944980
341.300 3.973341
341.400 4.010210
341.500 4.035735
341.600 4.030062
341.700 4.024390
341.800 4.018718
341.900 4.013046
342.000 4.010210
342.100 4.018718
342.200 4.024390
342.300 4.032898
342.400 4.027226
342.500 4.013046
342.600 4.013046
342.700 4.015882
342.800 4.035735
342.900 4.030062
343.000 3.996029
343.100 3.990357
343.200 3.990357
343.300 3.998866
343.400 4.004538
343.500 4.018718
343.600 4.021554
343.700 4.015882
343.800 3.990357
343.900 3.967669
344.000 3.910947
344.100 3.896767
344.200 3.899603
344.300 3.933636
344.400 3.953488
344.500 3.913783
344.600 3.896767
344.700 3.891095
344.800 3.919455
344.900 3.942144
345.000 3.857062
345.100 3.808849
345.200 3.791832
345.300 3.794668
345.400 3.808849
345.500 3.806012
345.600 3.803176
345.700 3.797504
345.800 3.791832
345.900 3.786160
346.000 3.783324
346.100 3.780488
346.200 3.806012
346.300 3.916619
346.400 3.862734
346.500 3.854226
346.600 3.868406
346.700 3.859898
346.800 3.840045
346.900 3.840045
347.000 3.848554
347.100 3.788996
347.200 3.777652
347.300 3.828701
347.400 3.828701
347.500 3.808849
347.600 3.771980
347.700 3.692569
347.800 3.618832
347.900 3.604651
348.000 3.644356
348.100 3.701078
348.200 3.678389
348.300 3.627340
348.400 3.638684
348.500 3.718094
348.600 3.746455
348.700 3.766307
348.800 3.817357
348.900 3.831537
349.000 3.800340
349.100 3.791832
349.200 3.828701
349.300 3.825865
349.400 3.820193
349.500 3.806012
349.600 3.763471
349.700 3.766307
349.800 3.786160
349.900 3.788996
350.000 3.754963
350.100 3.681225
350.200 3.681225
350.300 3.698242
350.400 3.669881
350.500 3.621668
350.600 3.610323
350.700 3.630176
350.800 3.652864
350.900 3.650028
351.000 3.644356
351.100 3.650028
351.200 3.641520
351.300 3.624504
351.400 3.641520
351.500 3.641520
351.600 3.652864
351.700 3.621668
351.800 3.613159
351.900 3.621668
352.000 3.630176
352.100 3.627340
352.200 3.615995
352.300 3.610323
352.400 3.641520
352.500 3.604651
352.600 3.598979
352.700 3.604651
352.800 3.615995
352.900 3.630176
353.000 3.638684
353.100 3.658537
353.200 3.675553
353.300 3.644356
353.400 3.596143
353.500 3.584799
353.600 3.590471
353.700 3.559274
353.800 3.550766
353.900 3.550766
354.000 3.576290
354.100 3.601815
354.200 3.596143
354.300 3.579126
354.400 3.579126
354.500 3.581963
354.600 3.567782
354.700 3.584799
354.800 3.607487
354.900 3.610323
355.000 3.581963
355.100 3.562110
355.200 3.579126
355.300 3.607487
355.400 3.604651
355.500 3.579126
355.600 3.550766
355.700 3.556438
355.800 3.567782
355.900 3.567782
356.000 3.556438
356.100 3.567782
356.200 3.584799
356.300 3.567782
356.400 3.545094
356.500 3.573454
356.600 3.598979
356.700 3.564946
356.800 3.564946
356.900 3.542258
357.000 3.491208
357.100 3.417470
357.200 3.420306
357.300 3.431651
357.400 3.417470
357.500 3.414634
357.600 3.431651
357.700 3.431651
357.800 3.420306
357.900 3.403290
358.000 3.411798
358.100 3.428815
358.200 3.425978
358.300 3.417470
358.400 3.414634
358.500 3.420306
358.600 3.428815
358.700 3.423142
358.800 3.406126
358.900 3.389109
359.000 3.411798
359.100 3.414634
359.200 3.394782
359.300 3.389109
359.400 3.391946
359.500 3.383437
359.600 3.369257
359.700 3.372093
359.800 3.377765
359.900 3.394782
360.000 3.428815
360.100 3.423142
360.200 3.425978
360.300 3.403290
360.400 3.386273
360.500 3.383437
360.600 3.380601
360.700 3.380601
360.800 3.394782
360.900 3.408962
361.000 3.400454
361.100 3.355077
361.200 3.360749
361.300 3.357913
361.400 3.335224
361.500 3.329552
361.600 3.340896
361.700 3.355077
361.800 3.369257
361.900 3.377765
362.000 3.343732
362.100 3.335224
362.200 3.366421
362.300 3.369257
362.400 3.346568
362.500 3.340896
362.600 3.357913
362.700 3.360749
362.800 3.335224
362.900 3.318208
363.000 3.338060
363.100 3.363585
363.200 3.360749
363.300 3.352240
363.400 3.374929
363.500 3.357913
363.600 3.284175
363.700 3.255814
363.800 3.252978
363.900 3.247306
364.000 3.252978
364.100 3.278503
364.200 3.295519
364.300 3.267158
364.400 3.224617
364.500 3.213273
364.600 3.224617
364.700 3.233125
364.800 3.241634
364.900 3.247306
365.000 3.244470
365.100 3.224617
365.200 3.216109
365.300 3.207601
365.400 3.199092
365.500 3.210437
365.600 3.213273
365.700 3.201929
365.800 3.199092
365.900 3.196256
366.000 3.184912
366.100 3.176404
366.200 3.173568
366.300 3.187748
366.400 3.196256
366.500 3.187748
366.600 3.179240
366.700 3.162223
366.800 3.153715
366.900 3.162223
367.000 3.173568
367.100 3.170732
367.200 3.156551
367.300 3.142371
367.400 3.136699
367.500 3.136699
367.600 3.156551
367.700 3.136699
367.800 3.128191
367.900 3.128191
368.000 3.128191
368.100 3.133863
368.200 3.133863
368.300 3.128191
368.400 3.114010
368.500 3.116846
368.600 3.119682
368.700 3.114010
368.800 3.116846
368.900 3.128191
369.000 3.116846
369.100 3.102666
369.200 3.116846
369.300 3.125355
369.400 3.094158
369.500 3.077141
369.600 3.074305
369.700 3.062961
369.800 3.057289
369.900 3.068633
370.000 3.096994
370.100 3.077141
370.200 3.031764
370.300 3.000567
370.400 2.983551
370.500 2.989223
370.600 3.006239
370.700 3.026092
370.800 3.023256
370.900 3.011912
371.000 2.989223
371.100 2.960862
371.200 2.941010
371.300 2.941010
371.400 2.975043
371.500 3.017584
371.600 3.028928
371.700 3.009075
371.800 3.009075
371.900 2.955190
372.000 2.895632
372.100 2.870108
372.200 2.878616
372.300 2.909813
372.400 2.929665
372.500 2.923993
372.600 2.923993
372.700 2.952354
372.800 2.977879
372.900 2.983551
373.000 2.980715
373.100 2.943846
373.200 2.898469
373.300 2.838911
373.400 2.792967
373.500 2.786444
373.600 2.817073
373.700 2.861600
373.800 2.918321
373.900 2.969370
374.000 3.000567
374.100 3.017584
374.200 3.003403
374.300 2.966534
374.400 2.955190
374.500 2.946682
374.600 2.915485
374.700 2.855927
374.800 2.780204
374.900 2.708168
375.000 2.691719
375.100 2.727453
375.200 2.769994
375.300 2.799773
375.400 2.825865
375.500 2.864436
375.600 2.884288
375.700 2.875780
375.800 2.864436
375.900 2.853091
376.000 2.841747
376.100 2.836075
376.200 2.898469
376.300 2.926829
376.400 2.906977
376.500 2.864436
376.600 2.819626
376.700 2.766875
376.800 2.705048
376.900 2.633579
377.000 2.561259
377.100 2.553035
377.200 2.613443
377.300 2.692286
377.400 2.757516
377.500 2.806296
377.600 2.830970
377.700 2.847419
377.800 2.850255
377.900 2.841747
378.000 2.844583
378.100 2.850255
378.200 2.867272
378.300 2.858763
378.400 2.850255
378.500 2.875780
378.600 2.889960
378.700 2.875780
378.800 2.855927
378.900 2.833239
379.000 2.804311
379.100 2.781906
379.200 2.770845
379.300 2.760635
379.400 2.711004
379.500 2.650028
379.600 2.551049
379.700 2.460011
379.800 2.433919
379.900 2.490074
380.000 2.590187
380.100 2.681509
380.200 2.719796
380.300 2.749858
380.400 2.771980
380.500 2.805729
380.600 2.792399
380.700 2.796086
380.800 2.810550
380.900 2.814804
381.000 2.821611
381.100 2.825298
381.200 2.811401
381.300 2.809416
381.400 2.816506
381.500 2.811117
381.600 2.795235
381.700 2.799773
381.800 2.790130
381.900 2.785026
382.000 2.771696
382.100 2.762337
382.200 2.772263
382.300 2.783040
382.400 2.780488
382.500 2.776234
382.600 2.753261
382.700 2.762621
382.800 2.756381
382.900 2.719796
383.000 2.671015
383.100 2.621668
383.200 2.559274
383.300 2.468803
383.400 2.369257
383.500 2.296937
383.600 2.314804
383.700 2.406693
383.800 2.503971
383.900 2.576574
384.000 2.630743
384.100 2.657969
384.200 2.685479
384.300 2.720930
384.400 2.756381
384.500 2.783607
384.600 2.762337
384.700 2.754963
384.800 2.747306
384.900 2.764322
385.000 2.762337
385.100 2.771980
385.200 2.779353
385.300 2.769711
385.400 2.755247
385.500 2.741350
385.600 2.727737
385.700 2.707601
385.800 2.702496
385.900 2.737096
386.000 2.754680
386.100 2.770278
386.200 2.747589
386.300 2.714974
386.400 2.690584
386.500 2.678673
386.600 2.684912
386.700 2.704765
386.800 2.718094
386.900 2.707317
387.000 2.688032
387.100 2.678389
387.200 2.675269
387.300 2.680374
387.400 2.686330
387.500 2.684628
387.600 2.673568
387.700 2.661656
387.800 2.667896
387.900 2.671583
388.000 2.677255
388.100 2.652581
388.200 2.624220
388.300 2.594725
388.400 2.566364
388.500 2.509359
388.600 2.409246
388.700 2.285876
388.800 2.166194
388.900 2.130459
389.000 2.213273
389.100 2.365854
389.200 2.465400
389.300 2.546512
389.400 2.582246
389.500 2.610891
389.600 2.635848
389.700 2.647192
389.800 2.655984
389.900 2.659671
390.000 2.668746
390.100 2.676687
390.200 2.678389
390.300 2.684912
390.400 2.688315
390.500 2.690301
390.600 2.678956
390.700 2.681792
390.800 2.704765
390.900 2.701078
391.000 2.674986
391.100 2.679240
391.200 2.693704
391.300 2.684912
391.400 2.686330
391.500 2.695973
391.600 2.692853
391.700 2.687465
391.800 2.674419
391.900 2.652297
392.000 2.641520
392.100 2.633012
392.200 2.610891
392.300 2.574022
392.400 2.572320
392.500 2.600964
392.600 2.617981
392.700 2.629609
392.800 2.633579
392.900 2.633296
393.000 2.629892
393.100 2.585366
393.200 2.414634
393.300 2.146341
393.400 2.182076
393.500 2.450652
393.600 2.584515
393.700 2.631310
393.800 2.634430
393.900 2.623936
394.000 2.622802
394.100 2.629892
394.200 2.629325
394.300 2.612592
394.400 2.599830
394.500 2.567499
394.600 2.553602
394.700 2.557856
394.800 2.561259
394.900 2.565513
395.000 2.564379
395.100 2.553318
395.200 2.542258
395.300 2.539705
395.400 2.533466
395.500 2.522689
395.600 2.509075
395.700 2.498298
395.800 2.491492
395.900 2.494611
396.000 2.498015
396.100 2.493477
396.200 2.478446
396.300 2.447816
396.400 2.406693
396.500 2.370959
396.600 2.282473
396.700 2.061826
396.800 1.816790
396.900 1.769427
397.000 1.863301
397.100 1.998015
397.200 2.129892
397.300 2.246739
397.400 2.309983
397.500 2.354793
397.600 2.392513
397.700 2.400454
397.800 2.402439
397.900 2.423142
398.000 2.431651
398.100 2.445264
398.200 2.451503
398.300 2.440442
398.400 2.433069
398.500 2.432501
398.600 2.384288
398.700 2.317357
398.800 2.414634
398.900 2.444129
399.000 2.455757
399.100 2.463698
399.200 2.464833
399.300 2.459444
399.400 2.452070
399.500 2.453488
399.600 2.445547
399.700 2.443279
399.800 2.445547
399.900 2.447533
400.000 2.426262
400.100 2.418888
400.200 2.423426
400.300 2.422859
400.400 2.422008
400.500 2.426829
400.600 2.426829
400.700 2.423142
400.800 2.427113
400.900 2.424844
401.000 2.417470
401.100 2.422859
401.200 2.428531
401.300 2.426829
401.400 2.427113
401.500 2.422292
401.600 2.413783
401.700 2.420023
401.800 2.430800
401.900 2.435621
402.000 2.427680
402.100 2.413216
402.200 2.412082
402.300 2.391662
402.400 2.346852
402.500 2.302042
402.600 2.287578
402.700 2.321894
402.800 2.367272
402.900 2.397334
403.000 2.416336
403.100 2.417187
403.200 2.413783
403.300 2.411231
403.400 2.410947
403.500 2.417470
403.600 2.419172
403.700 2.411231
403.800 2.403573
403.900 2.393931
404.000 2.403006
404.100 2.420874
404.200 2.418321
404.300 2.410947
404.400 2.407544
404.500 2.402155
404.600 2.398752
404.700 2.402723
404.800 2.409529
404.900 2.410096
405.000 2.398752
405.100 2.398469
405.200 2.413783
405.300 2.409813
405.400 2.411231
405.500 2.415485
405.600 2.408111
405.700 2.406693
405.800 2.410947
405.900 2.408678
406.000 2.404708
406.100 2.390528
406.200 2.380318
406.300 2.384005
406.400 2.327567
406.500 2.196824
406.600 2.242768
406.700 2.309983
406.800 2.314804
406.900 2.305729
407.000 2.296937
407.100 2.301475
407.200 2.314804
407.300 2.301191
407.400 2.300057
407.500 2.297788
407.600 2.290130
407.700 2.290698
407.800 2.298922
407.900 2.308565
408.000 2.311968
408.100 2.306012
408.200 2.299773
408.300 2.299773
408.400 2.283891
408.500 2.283324
408.600 2.280204
408.700 2.293250
408.800 2.303744
408.900 2.299490
409.000 2.278503
409.100 2.264606
409.200 2.260919
409.300 2.243335
409.400 2.217811
409.500 2.174702
409.600 2.141237
409.700 2.105502
409.800 2.037720
409.900 1.943562
410.000 1.839478
410.100 1.757799
410.200 1.745604
410.300 1.826999
410.400 1.967385
410.500 2.073171
410.600 2.128191
410.700 2.155133
410.800 2.180658
410.900 2.193988
411.000 2.205048
411.100 2.217243
411.200 2.223766
411.300 2.227453
411.400 2.244753
411.500 2.266875
411.600 2.275950
411.700 2.261770
411.800 2.235678
411.900 2.229155
412.000 2.238230
412.100 2.240216
412.200 2.238230
412.300 2.239365
412.400 2.239932
412.500 2.243052
412.600 2.245604
412.700 2.241350
412.800 2.228304
412.900 2.232275
413.000 2.239365
413.100 2.243052
413.200 2.237096
413.300 2.228588
