# Wavelength (nm)   F_lamA (normalized erg/cm2/s/A)9.100 0.005886
9.400 0.006527
9.600 0.006954
9.800 0.007377
10.000 0.007796
10.200 0.008210
10.400 0.008616
10.600 0.009015
10.800 0.009403
11.000 0.009783
11.400 0.010506
11.800 0.011183
12.100 0.011654
12.500 0.012249
12.700 0.012515
12.800 0.012649
13.100 0.013028
13.200 0.013141
13.400 0.013366
13.700 0.013684
14.000 0.013971
14.300 0.014227
14.700 0.014535
15.100 0.014791
15.500 0.015006
15.900 0.015180
16.200 0.015293
16.600 0.015406
17.000 0.015488
17.300 0.015529
17.700 0.015549
18.000 0.015560
18.200 0.015560
18.600 0.015529
19.100 0.015478
19.400 0.015426
19.800 0.015344
20.200 0.015252
20.500 0.015170
21.000 0.015027
21.600 0.014832
22.000 0.014688
22.300 0.014576
22.700 0.014422
23.000 0.037198
23.400 0.036029
24.000 0.034389
24.600 0.032893
25.200 0.031478
25.700 0.030105
26.000 0.029592
26.400 0.028823
26.900 0.027768
27.400 0.026753
27.900 0.025707
28.400 0.024846
29.000 0.023760
29.600 0.022653
30.100 0.021556
30.800 0.020572
31.800 0.019332
32.800 0.018030
33.800 0.016810
34.800 0.015693
35.700 0.014801
36.600 0.013991
37.500 0.013192
38.500 0.012331
39.500 0.011624
40.500 0.010957
41.400 0.010373
42.200 0.009873
43.000 0.009409
44.100 0.008852
45.100 0.008362
46.000 0.007934
47.000 0.007505
48.000 0.007118
49.000 0.006728
50.000 0.006400
50.600 0.006269
51.200 0.006284
52.000 0.006028
53.000 0.005735
54.000 0.005416
55.000 0.005169
56.000 0.004994
57.000 0.004779
58.000 0.004552
59.000 0.004373
60.000 0.004173
61.000 0.003991
62.000 0.003866
63.000 0.003711
64.000 0.003578
65.000 0.003443
65.800 0.003333
66.500 0.003269
67.500 0.003167
68.500 0.003048
69.500 0.002981
70.500 0.002876
71.600 0.002824
72.600 0.002763
73.500 0.002717
74.500 0.002669
75.500 0.002631
76.500 0.002596
77.500 0.002589
78.500 0.002583
79.500 0.002589
80.500 0.002608
81.500 0.002635
82.500 0.002678
83.500 0.002695
84.500 0.002790
85.500 0.002861
86.500 0.002961
87.500 0.003067
88.500 0.003191
89.500 0.003325
90.500 0.003451
91.500 0.006072
92.500 0.015744
93.500 0.037023
94.500 0.240160
95.500 1.020193
96.500 1.505740
97.500 0.347171
98.500 3.662362
99.500 4.824723
100.500 5.024600
101.500 2.684502
102.500 0.147499
103.500 1.974170
104.500 5.268553
105.500 6.125461
106.500 5.856909
107.500 6.409389
108.500 6.009635
109.500 6.354039
110.500 6.105986
111.500 6.040385
112.500 5.791308
113.500 5.948134
114.500 5.622181
115.500 5.616031
116.500 5.643706
117.500 5.104551
118.500 4.963100
119.500 3.531160
120.500 1.866544
121.500 0.159594
122.500 1.515990
123.500 3.716687
124.500 4.543870
125.500 4.769373
126.500 4.452645
127.500 5.002050
128.500 5.152727
129.500 4.924149
130.500 4.756048
131.500 5.088151
132.500 4.979500
133.500 4.816523
134.500 5.008200
135.500 4.884174
136.500 4.752973
137.500 4.745797
138.500 4.777573
139.500 4.697622
140.500 4.698647
141.500 4.585896
142.500 4.568471
143.500 4.481345
144.200 4.515170
144.700 4.507995
145.500 4.449569
146.500 4.354244
147.500 4.311193
148.500 4.253793
149.500 4.202542
150.500 4.167692
151.200 4.093891
151.700 4.124641
152.500 4.012915
153.500 3.902214
154.500 3.992415
155.500 3.849938
156.500 3.712587
157.500 3.752563
158.500 3.767938
159.500 3.797663
160.500 3.660312
161.500 3.630586
162.500 3.508610
163.500 3.498360
164.500 3.478885
165.500 3.311808
166.500 3.464535
167.200 3.285158
167.700 3.348708
168.500 3.383559
169.500 3.303608
170.500 3.228782
171.500 3.198032
172.500 3.143706
173.500 3.190857
174.500 3.110906
175.500 3.144731
176.500 2.967405
177.500 3.071956
178.500 3.017630
179.500 3.034030
180.500 2.998155
181.500 2.952030
182.500 2.925379
183.500 2.881304
184.500 2.811603
185.500 2.765478
186.500 2.741902
187.500 2.769578
188.500 2.712177
189.500 2.668102
190.500 2.682452
191.500 2.623001
192.500 2.603526
193.500 2.577901
194.500 2.601476
195.500 2.543050
196.700 2.553301
197.600 2.529725
198.400 2.496925
199.500 2.438499
200.500 2.432349
201.500 2.391349
202.500 2.390324
203.500 2.371874
204.500 2.357524
205.500 2.287823
206.500 2.282698
207.400 2.294998
207.800 2.276548
208.500 2.279623
209.500 2.237597
210.500 2.230422
211.500 2.212997
212.500 2.200697
213.500 2.151497
214.500 2.156622
215.500 2.135096
216.500 2.082821
217.500 2.066421
218.500 2.058221
219.500 2.073596
220.500 2.023370
221.500 1.982370
222.500 1.948544
223.500 1.992620
224.500 1.947519
225.500 1.910619
226.500 1.896269
227.500 1.904469
228.500 1.903444
229.500 1.859369
230.500 1.853219
231.500 1.829643
232.500 1.676917
233.500 1.783518
234.500 1.710742
235.500 1.754818
236.500 1.692292
237.500 1.712792
238.500 1.644116
239.500 1.679992
240.500 1.652317
241.500 1.647191
242.500 1.664617
243.500 1.625666
244.500 1.634891
245.500 1.625666
246.500 1.593891
247.500 1.577491
248.500 1.587741
249.500 1.553916
250.500 1.584666
251.300 1.545715
251.800 1.546740
252.500 1.506765
253.500 1.485240
254.500 1.484215
255.500 1.509840
256.500 1.490365
257.500 1.503690
258.500 1.497540
259.500 1.481140
260.500 1.454490
261.500 1.440139
262.500 1.440139
263.500 1.439114
264.500 1.480115
265.500 1.471915
266.500 1.438089
267.500 1.445264
268.500 1.440139
269.500 1.414514
270.500 1.409389
271.500 1.382739
272.500 1.371464
273.500 1.380689
274.500 1.317138
275.500 1.318163
276.500 1.336613
277.500 1.349938
278.500 1.330463
279.500 1.231037
280.500 1.263838
281.500 1.325338
282.500 1.317138
283.500 1.299713
284.500 1.284338
285.500 1.266913
286.500 1.281263
287.500 1.271013
288.500 1.267938
289.500 1.261788
291.000 1.267938
293.000 1.241287
295.000 1.224887
297.000 1.216687
299.000 1.204387
301.000 1.199262
303.000 1.187987
305.000 1.176712
307.000 1.162362
309.000 1.154162
311.000 1.140836
313.000 1.128536
315.000 1.118286
317.000 1.110086
319.000 1.088561
321.000 1.087536
323.000 1.072161
325.000 1.071136
327.000 1.068061
329.000 1.058836
331.000 1.050636
332.200 0.991697
332.300 1.002870
332.400 1.005023
332.500 0.997130
332.600 0.984317
332.700 0.964227
332.800 0.968635
332.900 0.976527
333.000 0.985650
333.100 0.992312
333.200 0.992517
333.300 0.993542
333.400 0.985342
333.500 0.978782
333.600 0.961050
333.700 0.947724
333.800 0.961255
333.900 0.970070
334.000 0.968737
334.100 0.960332
334.200 0.953157
334.300 0.966687
334.400 0.985547
334.500 0.990057
334.600 0.989340
334.700 0.984112
334.800 0.968635
334.900 0.945777
335.000 0.931632
335.100 0.927839
335.200 0.944752
335.300 0.955310
335.400 0.959820
335.500 0.952747
335.600 0.947314
335.700 0.951005
335.800 0.941882
335.900 0.928147
336.000 0.912054
336.100 0.906007
336.200 0.920664
336.300 0.934604
336.400 0.940139
336.500 0.936142
336.600 0.925892
336.700 0.920254
336.800 0.915847
336.900 0.916154
337.000 0.916769
337.100 0.919537
337.200 0.911029
337.300 0.911747
337.400 0.921792
337.500 0.938294
337.600 0.952952
337.700 0.948032
337.800 0.930402
337.900 0.921792
338.000 0.920049
338.100 0.931324
338.200 0.946084
338.300 0.965150
338.400 0.966072
338.500 0.963510
338.600 0.954387
338.700 0.945879
338.800 0.945059
338.900 0.951210
339.000 0.957462
339.100 0.965867
339.200 0.963305
339.300 0.955515
339.400 0.956130
339.500 0.963100
339.600 0.977860
339.700 0.986982
339.800 0.987802
339.900 0.967917
340.000 0.937372
340.100 0.928967
340.200 0.922407
340.300 0.931939
340.400 0.935219
340.500 0.938602
340.600 0.928044
340.700 0.918717
340.800 0.928147
340.900 0.930914
341.000 0.933682
341.100 0.933682
341.200 0.938089
341.300 0.952235
341.400 0.958487
341.500 0.949774
341.600 0.944239
341.700 0.945059
341.800 0.954285
341.900 0.962690
342.000 0.964227
342.100 0.961972
342.200 0.954387
342.300 0.951722
342.400 0.950390
342.500 0.947929
342.600 0.946699
342.700 0.950390
342.800 0.957770
342.900 0.969250
343.000 0.964330
343.100 0.951825
343.200 0.944649
343.300 0.942292
343.400 0.949672
343.500 0.954592
343.600 0.958897
343.700 0.962075
343.800 0.957770
343.900 0.949057
344.000 0.938602
344.100 0.922407
344.200 0.918204
344.300 0.911952
344.400 0.909389
344.500 0.921894
344.600 0.940139
344.700 0.958077
344.800 0.974682
344.900 0.984215
345.000 0.964842
345.100 0.930299
345.200 0.915027
345.300 0.905597
345.400 0.913182
345.500 0.913489
345.600 0.911849
345.700 0.912977
345.800 0.906519
345.900 0.904982
346.000 0.902214
346.100 0.900882
346.200 0.906417
346.300 0.918409
346.400 0.918409
346.500 0.910824
346.600 0.907134
346.700 0.909184
346.800 0.913079
346.900 0.922407
347.000 0.932247
347.100 0.937782
347.200 0.928864
347.300 0.906212
347.400 0.897499
347.500 0.893706
347.600 0.901087
347.700 0.914719
347.800 0.919229
347.900 0.920357
348.000 0.923944
348.100 0.924047
348.200 0.921279
348.300 0.917282
348.400 0.917794
348.500 0.929479
348.600 0.939422
348.700 0.941472
348.800 0.932759
348.900 0.921382
349.000 0.912362
349.100 0.910927
349.200 0.916359
349.300 0.919947
349.400 0.915642
349.500 0.901599
349.600 0.894936
349.700 0.902317
349.800 0.912362
349.900 0.920664
350.000 0.908262
350.100 0.901497
350.200 0.907544
350.300 0.906109
350.400 0.902624
350.500 0.896064
350.600 0.891759
350.700 0.891656
350.800 0.891349
350.900 0.896064
351.000 0.902522
351.100 0.904777
351.200 0.901497
351.300 0.890221
351.400 0.878639
351.500 0.882739
351.600 0.894116
351.700 0.906622
351.800 0.914412
351.900 0.911644
352.000 0.908877
352.100 0.906622
352.200 0.903239
352.300 0.902419
352.400 0.898729
352.500 0.898114
352.600 0.906007
352.700 0.908057
352.800 0.910209
352.900 0.913284
353.000 0.917282
353.100 0.921689
353.200 0.925994
353.300 0.924559
353.400 0.913182
353.500 0.906314
353.600 0.904982
353.700 0.908569
353.800 0.914924
353.900 0.920049
354.000 0.922509
354.100 0.921074
354.200 0.918204
354.300 0.919434
354.400 0.921279
354.500 0.921689
354.600 0.925687
354.700 0.927634
354.800 0.930812
354.900 0.928864
355.000 0.925584
355.100 0.926917
355.200 0.925892
355.300 0.921792
355.400 0.912567
355.500 0.909184
355.600 0.918204
355.700 0.929069
355.800 0.932042
355.900 0.925892
356.000 0.917282
356.100 0.920254
356.200 0.926199
356.300 0.926712
356.400 0.918204
356.500 0.902419
356.600 0.898011
356.700 0.902624
356.800 0.907032
356.900 0.905392
357.000 0.896576
357.100 0.881611
357.200 0.865929
357.300 0.864596
357.400 0.865416
357.500 0.866544
357.600 0.869004
357.700 0.871771
357.800 0.872079
357.900 0.868389
358.000 0.865724
358.100 0.861316
358.200 0.858959
358.300 0.860599
358.400 0.859164
358.500 0.855371
358.600 0.846966
358.700 0.841533
358.800 0.841328
358.900 0.847786
359.000 0.855884
359.100 0.862136
359.200 0.863264
359.300 0.863469
359.400 0.862751
359.500 0.865724
359.600 0.871771
359.700 0.874949
359.800 0.877409
359.900 0.878434
360.000 0.877204
360.100 0.869721
360.200 0.867979
360.300 0.865929
360.400 0.864494
360.500 0.867261
360.600 0.870849
360.700 0.871976
360.800 0.871566
360.900 0.873514
361.000 0.874539
361.100 0.877101
361.200 0.875769
361.300 0.872591
361.400 0.877306
361.500 0.884071
361.600 0.887351
361.700 0.891144
361.800 0.890016
361.900 0.886224
362.000 0.886839
362.100 0.886634
362.200 0.894424
362.300 0.902932
362.400 0.902522
362.500 0.906007
362.600 0.910517
362.700 0.917179
362.800 0.920152
362.900 0.912259
363.000 0.896986
363.100 0.888274
363.200 0.887761
363.300 0.899241
363.400 0.909799
363.500 0.912567
363.600 0.900164
363.700 0.889709
363.800 0.893194
363.900 0.898421
364.000 0.898626
364.100 0.894424
364.200 0.885711
364.300 0.878946
364.400 0.879151
364.500 0.883764
364.600 0.883456
364.700 0.881816
364.800 0.882021
364.900 0.883354
365.000 0.887249
365.100 0.888991
365.200 0.893194
365.300 0.899856
365.400 0.902112
365.500 0.898114
365.600 0.895859
365.700 0.896269
365.800 0.901497
365.900 0.902419
366.000 0.894014
366.100 0.884686
366.200 0.878331
366.300 0.881099
366.400 0.887249
366.500 0.889504
366.600 0.886839
366.700 0.880074
366.800 0.876281
366.900 0.877409
367.000 0.880996
367.100 0.884994
367.200 0.890529
367.300 0.892271
367.400 0.888581
367.500 0.878536
367.600 0.864289
367.700 0.860291
367.800 0.860496
367.900 0.867159
368.000 0.872489
368.100 0.877511
368.200 0.874641
368.300 0.870029
368.400 0.870849
368.500 0.867979
368.600 0.859164
368.700 0.859574
368.800 0.874641
368.900 0.894424
369.000 0.901804
369.100 0.886634
369.200 0.884379
369.300 0.897806
369.400 0.916564
369.500 0.922099
369.600 0.893399
369.700 0.878331
369.800 0.888479
369.900 0.927019
370.000 0.970172
370.100 0.975297
370.200 0.942907
370.300 0.873104
370.400 0.839176
370.500 0.836921
370.600 0.887146
370.700 0.943214
370.800 0.987495
370.900 0.968942
371.000 0.908877
371.100 0.854654
371.200 0.822468
371.300 0.845531
371.400 0.906827
371.500 1.006765
371.600 1.070111
371.700 1.112136
371.800 1.099836
371.900 1.035260
372.000 0.917179
372.100 0.845941
372.200 0.799713
372.300 0.830053
372.400 0.917897
372.500 1.035260
372.600 1.114186
372.700 1.185937
372.800 1.212587
372.900 1.214637
373.000 1.184912
373.100 1.109061
373.200 0.976220
373.300 0.879971
373.400 0.789873
373.500 0.774190
373.600 0.824928
373.700 0.940242
373.800 1.050636
373.900 1.193112
374.000 1.269988
374.100 1.327388
374.200 1.346863
374.300 1.340713
374.400 1.306888
374.500 1.253588
374.600 1.160312
374.700 1.051661
374.800 0.940754
374.900 0.815191
375.000 0.769475
375.100 0.783415
375.200 0.867774
375.300 0.993030
375.400 1.131611
375.500 1.223862
375.600 1.316113
375.700 1.355064
375.800 1.381714
375.900 1.388889
376.000 1.384789
376.100 1.384789
376.200 1.389914
376.300 1.375564
376.400 1.349938
376.500 1.290488
376.600 1.204387
376.700 1.120336
376.800 0.993645
376.900 0.877614
377.000 0.786798
377.100 0.748975
377.200 0.803711
377.300 0.928147
377.400 1.035260
377.500 1.158262
377.600 1.255638
377.700 1.339688
377.800 1.427839
377.900 1.481140
378.000 1.537515
378.100 1.563141
378.200 1.581591
378.300 1.591841
378.400 1.599016
378.500 1.597991
378.600 1.584666
378.700 1.561091
378.800 1.539565
378.900 1.511890
379.000 1.470890
379.100 1.427839
379.200 1.350964
379.300 1.265888
379.400 1.161337
379.500 1.020808
379.600 0.910312
379.700 0.793358
379.800 0.740570
379.900 0.764145
380.000 0.870951
380.100 0.989237
380.200 1.141861
380.300 1.242312
380.400 1.342763
380.500 1.411439
380.600 1.459615
380.700 1.513940
380.800 1.552891
380.900 1.600041
381.000 1.632841
381.100 1.652317
381.200 1.648216
381.300 1.636941
381.400 1.624641
381.500 1.632841
381.600 1.634891
381.700 1.630791
381.800 1.620541
381.900 1.594916
382.000 1.576466
382.100 1.567241
382.200 1.574416
382.300 1.572366
382.400 1.547765
382.500 1.513940
382.600 1.469865
382.700 1.433989
382.800 1.381714
382.900 1.315088
383.000 1.247437
383.100 1.144936
383.200 1.051661
383.300 0.927737
383.400 0.794793
383.500 0.738315
383.600 0.725810
383.700 0.784953
383.800 0.892681
383.900 1.006663
384.000 1.111111
384.100 1.235137
384.200 1.316113
384.300 1.408364
384.400 1.463715
384.500 1.515990
384.600 1.562116
384.700 1.592866
384.800 1.619516
384.900 1.631816
385.000 1.644116
385.100 1.661542
385.200 1.670767
385.300 1.677942
385.400 1.678967
385.500 1.676917
385.600 1.674867
385.700 1.679992
385.800 1.694342
385.900 1.707667
386.000 1.713817
386.100 1.712792
386.200 1.700492
386.300 1.671792
386.400 1.669742
386.500 1.671792
386.600 1.678967
386.700 1.686142
386.800 1.691267
386.900 1.691267
387.000 1.677942
387.100 1.658467
387.200 1.633866
387.300 1.621566
387.400 1.618491
387.500 1.620541
387.600 1.605166
387.700 1.573391
387.800 1.545715
387.900 1.510865
388.000 1.481140
388.100 1.443214
388.200 1.378639
388.300 1.318163
388.400 1.227962
388.500 1.130586
388.600 1.020910
388.700 0.876896
388.800 0.787720
388.900 0.732062
389.000 0.757278
389.100 0.844813
389.200 0.979090
389.300 1.082411
389.400 1.196187
389.500 1.272038
389.600 1.349938
389.700 1.414514
389.800 1.453465
389.900 1.491390
390.000 1.521115
390.100 1.555966
390.200 1.591841
390.300 1.615416
390.400 1.627716
390.500 1.636941
390.600 1.646166
390.700 1.665642
390.800 1.695367
390.900 1.727142
391.000 1.742517
391.100 1.747642
391.200 1.737392
391.300 1.719967
391.400 1.706642
391.500 1.707667
391.600 1.720992
391.700 1.729192
391.800 1.735342
391.900 1.733292
392.000 1.736367
392.100 1.740467
392.200 1.739442
392.300 1.738417
392.400 1.736367
392.500 1.736367
392.600 1.727142
392.700 1.714842
392.800 1.693317
392.900 1.672817
393.000 1.650267
393.100 1.604141
393.200 1.531365
393.300 1.438089
393.400 1.405289
393.500 1.437064
393.600 1.533415
393.700 1.610291
393.800 1.663592
393.900 1.691267
394.000 1.710742
394.100 1.723042
394.200 1.725092
394.300 1.720992
394.400 1.711767
394.500 1.696392
394.600 1.689217
394.700 1.687167
394.800 1.682042
394.900 1.673842
395.000 1.663592
395.100 1.653342
395.200 1.643091
395.300 1.642066
395.400 1.636941
395.500 1.621566
395.600 1.601066
395.700 1.573391
395.800 1.554941
395.900 1.526240
396.000 1.484215
396.100 1.438089
396.200 1.373514
396.300 1.325338
396.400 1.247437
396.500 1.154162
396.600 1.041410
396.700 0.888069
396.800 0.774190
396.900 0.672919
397.000 0.641964
397.100 0.684502
397.200 0.791000
397.300 0.900267
397.400 1.039360
397.500 1.139811
397.600 1.237187
397.700 1.317138
397.800 1.368389
397.900 1.425789
398.000 1.461665
398.100 1.495490
398.200 1.523165
398.300 1.547765
398.400 1.577491
398.500 1.601066
398.600 1.619516
398.700 1.628741
398.800 1.636941
398.900 1.645141
399.000 1.658467
399.100 1.670767
399.200 1.676917
399.300 1.686142
399.400 1.691267
399.500 1.694342
399.600 1.692292
399.700 1.692292
399.800 1.691267
399.900 1.693317
400.000 1.691267
400.100 1.684092
400.200 1.683067
400.300 1.677942
400.400 1.674867
400.500 1.672817
400.600 1.673842
400.700 1.675892
400.800 1.682042
400.900 1.686142
401.000 1.687167
401.100 1.686142
401.200 1.689217
401.300 1.693317
401.400 1.694342
401.500 1.700492
401.600 1.708692
401.700 1.716892
401.800 1.726117
401.900 1.730217
402.000 1.732267
402.100 1.727142
402.200 1.713817
402.300 1.694342
402.400 1.674867
402.500 1.657442
402.600 1.656417
402.700 1.665642
402.800 1.674867
402.900 1.686142
403.000 1.697417
403.100 1.704592
403.200 1.712792
403.300 1.717917
403.400 1.723042
403.500 1.730217
403.600 1.733292
403.700 1.738417
403.800 1.741492
403.900 1.740467
404.000 1.738417
404.100 1.731242
404.200 1.726117
404.300 1.722017
404.400 1.708692
404.500 1.694342
404.600 1.686142
404.700 1.695367
404.800 1.709717
404.900 1.719967
405.000 1.722017
405.100 1.719967
405.200 1.712792
405.300 1.703567
405.400 1.696392
405.500 1.700492
405.600 1.708692
405.700 1.711767
405.800 1.709717
405.900 1.710742
406.000 1.708692
406.100 1.700492
406.200 1.688192
406.300 1.678967
406.400 1.668717
406.500 1.648216
406.600 1.636941
406.700 1.636941
406.800 1.635916
406.900 1.636941
407.000 1.630791
407.100 1.613366
407.200 1.604141
407.300 1.601066
407.400 1.604141
407.500 1.603116
407.600 1.587741
407.700 1.576466
407.800 1.567241
407.900 1.569291
408.000 1.580566
408.100 1.585691
408.200 1.581591
408.300 1.571341
408.400 1.561091
408.500 1.544690
408.600 1.528290
408.700 1.514965
408.800 1.501640
408.900 1.494465
409.000 1.474990
409.100 1.452440
409.200 1.421689
409.300 1.375564
409.400 1.333538
409.500 1.271013
409.600 1.208487
409.700 1.131611
409.800 1.035260
409.900 0.940754
410.000 0.823801
410.100 0.741902
410.200 0.714637
410.300 0.758713
410.400 0.846556
410.500 0.969250
410.600 1.056786
410.700 1.145961
410.800 1.213612
410.900 1.266913
411.000 1.320213
411.100 1.357114
411.200 1.398114
411.300 1.424764
411.400 1.449364
411.500 1.473965
411.600 1.493440
411.700 1.505740
411.800 1.508815
411.900 1.511890
412.000 1.518040
412.100 1.525215
412.200 1.532390
412.300 1.539565
412.400 1.553916
412.500 1.566216
412.600 1.560066
412.700 1.543665
412.800 1.534440
412.900 1.529315
413.000 1.529315
413.100 1.536490
413.200 1.544690
413.300 1.558016
413.400 1.578516
413.500 1.587741
413.600 1.596966
413.700 1.603116
413.800 1.610291
413.900 1.616441
414.000 1.615416
414.100 1.606191
414.200 1.592866
414.300 1.580566
414.400 1.574416
414.500 1.580566
414.600 1.592866
414.700 1.602091
414.800 1.604141
414.900 1.602091
415.000 1.606191
415.100 1.611316
415.200 1.613366
415.300 1.613366
415.400 1.610291
415.500 1.607216
