# Wavelength (nm)   F_lamA (normalized erg/cm2/s/A)9.100 0.000052
9.400 0.000074
9.600 0.000093
9.800 0.000114
10.000 0.000139
10.200 0.000168
10.400 0.000201
10.600 0.000239
10.800 0.000282
11.000 0.000330
11.400 0.000443
11.800 0.000581
12.100 0.000701
12.500 0.000885
12.700 0.000987
12.800 0.001041
13.100 0.001214
13.200 0.001276
13.400 0.001403
13.700 0.001608
14.000 0.001828
14.300 0.002065
14.700 0.002402
15.100 0.002766
15.500 0.003153
15.900 0.003562
16.200 0.003881
16.600 0.004323
17.000 0.004780
17.300 0.005132
17.700 0.005611
18.000 0.005976
18.200 0.006222
18.600 0.006717
19.100 0.007342
19.400 0.007718
19.800 0.008219
20.200 0.008716
20.500 0.009088
21.000 0.009701
21.600 0.010415
22.000 0.010887
22.300 0.011225
22.700 0.011678
23.000 0.078650
23.400 0.077271
24.000 0.075371
24.600 0.073703
25.200 0.072083
25.700 0.069759
26.000 0.069576
26.400 0.069074
26.900 0.067493
27.400 0.065892
27.900 0.063992
28.400 0.062787
29.000 0.060906
29.600 0.058650
30.100 0.055796
30.800 0.054446
31.800 0.052613
32.800 0.050019
33.800 0.047454
34.800 0.045024
35.700 0.043182
36.600 0.041485
37.500 0.039624
38.500 0.037454
39.500 0.035892
40.500 0.034291
41.400 0.032845
42.200 0.031524
43.000 0.030299
44.100 0.028891
45.100 0.027589
46.000 0.026384
47.000 0.025198
48.000 0.024137
49.000 0.022989
50.000 0.022093
50.600 0.021813
51.200 0.022218
52.000 0.021427
53.000 0.020511
54.000 0.019460
55.000 0.018689
56.000 0.018274
57.000 0.017599
58.000 0.016856
59.000 0.016287
60.000 0.015593
61.000 0.014966
62.000 0.014609
63.000 0.014060
64.000 0.013607
65.000 0.013105
65.800 0.012681
66.500 0.012449
67.500 0.012073
68.500 0.011562
69.500 0.011283
70.500 0.010791
71.600 0.010550
72.600 0.010222
73.500 0.009942
74.500 0.009611
75.500 0.009309
76.500 0.008981
77.500 0.008751
78.500 0.008483
79.500 0.008247
80.500 0.008020
81.500 0.007803
82.500 0.007593
83.500 0.007267
84.500 0.007172
85.500 0.006967
86.500 0.006801
87.500 0.006625
88.500 0.006448
89.500 0.006279
90.500 0.006097
91.500 0.007305
92.500 0.009749
93.500 0.011919
94.500 0.014841
95.500 0.015873
96.500 0.017358
97.500 0.011909
98.500 0.017088
99.500 0.016393
100.500 0.016943
101.500 0.016027
102.500 0.011524
103.500 0.014773
104.500 0.016374
105.500 0.016095
106.500 0.015217
107.500 0.015410
108.500 0.014388
109.500 0.015024
110.500 0.014619
111.500 0.014465
112.500 0.013751
113.500 0.013973
114.500 0.013385
115.500 0.013221
116.500 0.013018
117.500 0.011649
118.500 0.012324
119.500 0.011591
120.500 0.010569
121.500 0.007680
122.500 0.010395
123.500 0.011061
124.500 0.011099
125.500 0.011032
126.500 0.010820
127.500 0.010945
128.500 0.011090
129.500 0.011205
130.500 0.012093
131.500 0.014156
132.500 0.016326
133.500 0.018756
134.500 0.022874
135.500 0.024581
136.500 0.028717
137.500 0.032681
138.500 0.035458
139.500 0.039932
140.500 0.042083
141.500 0.048881
142.500 0.050145
143.500 0.051225
144.200 0.060087
144.700 0.057493
145.500 0.067377
146.500 0.061475
147.500 0.067599
148.500 0.071861
149.500 0.076008
150.500 0.084108
151.200 0.084474
151.700 0.081186
152.500 0.087686
153.500 0.093182
154.500 0.096422
155.500 0.104339
156.500 0.098843
157.500 0.120058
158.500 0.131340
159.500 0.140116
160.500 0.126615
161.500 0.142334
162.500 0.137608
163.500 0.148409
164.500 0.176278
165.500 0.140309
166.500 0.195757
167.200 0.166056
167.700 0.199421
168.500 0.215140
169.500 0.204339
170.500 0.210029
171.500 0.226808
172.500 0.226230
173.500 0.241273
174.500 0.237126
175.500 0.252266
176.500 0.225940
177.500 0.247734
178.500 0.251398
179.500 0.269238
180.500 0.278399
181.500 0.278689
182.500 0.267502
183.500 0.274638
184.500 0.251977
185.500 0.266827
186.500 0.278206
187.500 0.279556
188.500 0.282064
189.500 0.289007
190.500 0.280521
191.500 0.292478
192.500 0.297782
193.500 0.279556
194.500 0.307040
195.500 0.308004
196.700 0.319672
197.600 0.310318
198.400 0.309836
199.500 0.308486
200.500 0.298168
201.500 0.302797
202.500 0.286982
203.500 0.312922
204.500 0.325265
205.500 0.318997
206.500 0.316393
207.400 0.336837
207.800 0.341080
208.500 0.339826
209.500 0.331148
210.500 0.325651
211.500 0.334523
212.500 0.334716
213.500 0.311765
214.500 0.337994
215.500 0.334908
216.500 0.320154
217.500 0.321504
218.500 0.334233
219.500 0.355159
220.500 0.344069
221.500 0.323433
222.500 0.333655
223.500 0.366442
224.500 0.346287
225.500 0.329605
226.500 0.321215
227.500 0.343394
228.500 0.355834
229.500 0.336258
230.500 0.352845
231.500 0.351784
232.500 0.316201
233.500 0.336644
234.500 0.300579
235.500 0.354870
236.500 0.313115
237.500 0.339055
238.500 0.288814
239.500 0.319961
240.500 0.314272
241.500 0.321408
242.500 0.362199
243.500 0.352555
244.500 0.371360
245.500 0.368081
246.500 0.367695
247.500 0.347637
248.500 0.337994
249.500 0.337898
250.500 0.384860
251.300 0.337126
251.800 0.314079
252.500 0.305689
253.500 0.321504
254.500 0.327580
255.500 0.364899
256.500 0.358631
257.500 0.385149
258.500 0.383124
259.500 0.377242
260.500 0.360270
261.500 0.347927
262.500 0.381292
263.500 0.405786
264.500 0.461041
265.500 0.478014
266.500 0.439923
267.500 0.461524
268.500 0.475217
269.500 0.438187
270.500 0.452845
271.500 0.418033
272.500 0.419576
273.500 0.443587
274.500 0.373578
275.500 0.401157
276.500 0.437416
277.500 0.458727
278.500 0.423433
279.500 0.267406
280.500 0.307907
281.500 0.471263
282.500 0.492285
283.500 0.483028
284.500 0.462777
285.500 0.404243
286.500 0.483510
287.500 0.490453
288.500 0.493732
289.500 0.498168
291.000 0.539826
293.000 0.527001
295.000 0.521311
297.000 0.528351
299.000 0.536162
301.000 0.543877
303.000 0.548698
305.000 0.560077
307.000 0.553809
309.000 0.554581
311.000 0.558631
313.000 0.555352
315.000 0.554484
317.000 0.568949
319.000 0.546962
321.000 0.569913
323.000 0.552555
325.000 0.590646
327.000 0.619479
329.000 0.620058
331.000 0.621022
332.200 0.500482
332.300 0.482353
332.400 0.489200
332.500 0.512536
332.600 0.505786
332.700 0.481292
332.800 0.474928
332.900 0.485824
333.000 0.516490
333.100 0.530376
333.200 0.520829
333.300 0.521986
333.400 0.507715
333.500 0.498071
333.600 0.482064
333.700 0.476181
333.800 0.491418
333.900 0.506075
334.000 0.504050
334.100 0.500482
334.200 0.493057
334.300 0.506654
334.400 0.528062
334.500 0.526519
334.600 0.517647
334.700 0.494407
334.800 0.467406
334.900 0.448795
335.000 0.467792
335.100 0.491321
335.200 0.499325
335.300 0.503857
335.400 0.513790
335.500 0.519865
335.600 0.506654
335.700 0.479460
335.800 0.432787
335.900 0.401254
336.000 0.382449
336.100 0.403857
336.200 0.431919
336.300 0.468563
336.400 0.493153
336.500 0.486885
336.600 0.475217
336.700 0.469142
336.800 0.457859
336.900 0.452266
337.000 0.429508
337.100 0.414561
337.200 0.415815
337.300 0.441176
337.400 0.463259
337.500 0.488139
337.600 0.500675
337.700 0.505979
337.800 0.494889
337.900 0.482353
338.000 0.477628
338.100 0.480714
338.200 0.483414
338.300 0.491225
338.400 0.495178
338.500 0.502314
338.600 0.493635
338.700 0.477821
338.800 0.475313
338.900 0.487657
339.000 0.496528
339.100 0.507232
339.200 0.498168
339.300 0.491418
339.400 0.494889
339.500 0.506750
339.600 0.527097
339.700 0.541176
339.800 0.554195
339.900 0.555352
340.000 0.547734
340.100 0.536355
340.200 0.508100
340.300 0.503375
340.400 0.498071
340.500 0.507040
340.600 0.505207
340.700 0.494889
340.800 0.484764
340.900 0.482449
341.000 0.499229
341.100 0.500868
341.200 0.497975
341.300 0.489296
341.400 0.489296
341.500 0.502218
341.600 0.509740
341.700 0.518515
341.800 0.528447
341.900 0.537319
342.000 0.547252
342.100 0.547637
342.200 0.534908
342.300 0.517454
342.400 0.507425
342.500 0.514368
342.600 0.520540
342.700 0.529122
342.800 0.542527
342.900 0.559209
343.000 0.570492
343.100 0.550530
343.200 0.529605
343.300 0.519769
343.400 0.537705
343.500 0.561331
343.600 0.567117
343.700 0.552845
343.800 0.534812
343.900 0.515622
344.000 0.500000
344.100 0.480328
344.200 0.470588
344.300 0.471263
344.400 0.482642
344.500 0.503375
344.600 0.529797
344.700 0.557859
344.800 0.575121
344.900 0.581292
345.000 0.558245
345.100 0.527290
345.200 0.509161
345.300 0.509450
345.400 0.518322
345.500 0.529605
345.600 0.535005
345.700 0.535583
345.800 0.528930
345.900 0.521408
346.000 0.509643
346.100 0.500771
346.200 0.511283
346.300 0.524494
346.400 0.536644
346.500 0.528447
346.600 0.523915
346.700 0.531437
346.800 0.550434
346.900 0.567117
347.000 0.574638
347.100 0.570685
347.200 0.561427
347.300 0.540598
347.400 0.520926
347.500 0.511765
347.600 0.510318
347.700 0.526422
347.800 0.544937
347.900 0.561524
348.000 0.575024
348.100 0.576374
348.200 0.568370
348.300 0.561331
348.400 0.554773
348.500 0.562006
348.600 0.579171
348.700 0.581678
348.800 0.573963
348.900 0.556413
349.000 0.539344
349.100 0.537223
349.200 0.549952
349.300 0.554773
349.400 0.550916
349.500 0.538959
349.600 0.522083
349.700 0.526422
349.800 0.532401
349.900 0.546191
350.000 0.551302
350.100 0.546480
350.200 0.547541
350.300 0.549084
350.400 0.554870
350.500 0.552941
350.600 0.545034
350.700 0.539634
350.800 0.535583
350.900 0.539441
351.000 0.538476
351.100 0.533751
351.200 0.527290
351.300 0.522854
351.400 0.524301
351.500 0.531823
351.600 0.555352
351.700 0.575410
351.800 0.581678
351.900 0.563742
352.000 0.544744
352.100 0.533944
352.200 0.529508
352.300 0.525747
352.400 0.514658
352.500 0.505497
352.600 0.512922
352.700 0.524976
352.800 0.542527
352.900 0.561716
353.000 0.575024
353.100 0.581099
353.200 0.578399
353.300 0.566827
353.400 0.559402
353.500 0.557763
353.600 0.568563
353.700 0.582932
353.800 0.593250
353.900 0.600096
354.000 0.601639
354.100 0.599036
354.200 0.594986
354.300 0.599614
354.400 0.607232
354.500 0.607040
354.600 0.603664
354.700 0.597686
354.800 0.594793
354.900 0.594986
355.000 0.601350
355.100 0.610318
355.200 0.606461
355.300 0.594118
355.400 0.583124
355.500 0.583799
355.600 0.591707
355.700 0.606365
355.800 0.611572
355.900 0.610608
356.000 0.608486
356.100 0.608872
356.200 0.608872
356.300 0.599229
356.400 0.579556
356.500 0.558149
356.600 0.543973
356.700 0.544069
356.800 0.549180
356.900 0.549084
357.000 0.538476
357.100 0.525072
357.200 0.522469
357.300 0.524108
357.400 0.527676
357.500 0.537126
357.600 0.548987
357.700 0.561234
357.800 0.569238
357.900 0.562681
358.000 0.550434
358.100 0.535680
358.200 0.526133
358.300 0.533269
358.400 0.534233
358.500 0.516490
358.600 0.488525
358.700 0.477242
358.800 0.489200
358.900 0.515718
359.000 0.537994
359.100 0.551880
359.200 0.558920
359.300 0.561041
359.400 0.563742
359.500 0.576374
359.600 0.589392
359.700 0.597107
359.800 0.598168
359.900 0.598746
360.000 0.598554
360.100 0.585535
360.200 0.571649
360.300 0.557473
360.400 0.559402
360.500 0.568467
360.600 0.569045
360.700 0.566924
360.800 0.561041
360.900 0.558631
361.000 0.556123
361.100 0.557666
361.200 0.564899
361.300 0.571070
361.400 0.578592
361.500 0.599614
361.600 0.605593
361.700 0.597203
361.800 0.575121
361.900 0.554966
362.000 0.562584
362.100 0.579846
362.200 0.595564
362.300 0.602218
362.400 0.605979
362.500 0.619961
362.600 0.637319
362.700 0.656798
362.800 0.654002
362.900 0.632594
363.000 0.597203
363.100 0.572420
363.200 0.566827
363.300 0.582835
363.400 0.601639
363.500 0.605014
363.600 0.603568
363.700 0.608968
363.800 0.622662
363.900 0.634330
364.000 0.635487
364.100 0.628447
364.200 0.613693
364.300 0.601543
364.400 0.595371
364.500 0.590453
364.600 0.585632
364.700 0.586403
364.800 0.589875
364.900 0.588621
365.000 0.590453
365.100 0.595371
365.200 0.608582
365.300 0.621311
365.400 0.633848
365.500 0.645902
365.600 0.653905
365.700 0.656606
365.800 0.655931
365.900 0.654773
366.000 0.650820
366.100 0.642141
366.200 0.635391
366.300 0.631244
366.400 0.631533
366.500 0.634523
366.600 0.635776
366.700 0.636548
366.800 0.632401
366.900 0.627483
367.000 0.623626
367.100 0.626712
367.200 0.637126
367.300 0.646191
367.400 0.645419
367.500 0.639344
367.600 0.626230
367.700 0.613983
367.800 0.603954
367.900 0.603761
368.000 0.609161
368.100 0.609065
368.200 0.613404
368.300 0.614561
368.400 0.610222
368.500 0.601350
368.600 0.594600
368.700 0.591707
368.800 0.610125
368.900 0.633173
369.000 0.644552
369.100 0.648120
369.200 0.642141
369.300 0.645902
369.400 0.654773
369.500 0.657570
369.600 0.652459
369.700 0.636741
369.800 0.647541
369.900 0.670685
370.000 0.704147
370.100 0.706750
370.200 0.667792
370.300 0.619479
370.400 0.575603
370.500 0.567599
370.600 0.580424
370.700 0.610415
370.800 0.628544
370.900 0.630280
371.000 0.611090
371.100 0.591803
371.200 0.587657
371.300 0.609065
371.400 0.659884
371.500 0.702989
371.600 0.727869
371.700 0.733558
371.800 0.717454
371.900 0.668852
372.000 0.597589
372.100 0.535005
372.200 0.523819
372.300 0.550241
372.400 0.622083
372.500 0.676856
372.600 0.711475
372.700 0.724976
372.800 0.729122
372.900 0.731244
373.000 0.728544
373.100 0.702507
373.200 0.636644
373.300 0.566827
373.400 0.511283
373.500 0.486982
373.600 0.516297
373.700 0.576567
373.800 0.638573
373.900 0.703375
374.000 0.747830
374.100 0.769431
374.200 0.761041
374.300 0.744648
374.400 0.717454
374.500 0.690935
374.600 0.659499
374.700 0.620926
374.800 0.574060
374.900 0.534619
375.000 0.506075
375.100 0.535487
375.200 0.594696
375.300 0.678399
375.400 0.731919
375.500 0.767792
375.600 0.778496
375.700 0.768756
375.800 0.748023
375.900 0.733944
376.000 0.730280
376.100 0.745227
376.200 0.760559
376.300 0.765092
376.400 0.760463
376.500 0.740887
376.600 0.722565
376.700 0.693828
376.800 0.642623
376.900 0.599325
377.000 0.554291
377.100 0.554388
377.200 0.589875
377.300 0.651109
377.400 0.701157
377.500 0.734523
377.600 0.749759
377.700 0.775410
377.800 0.808100
377.900 0.838187
378.000 0.869431
378.100 0.885728
378.200 0.892189
378.300 0.888042
378.400 0.880810
378.500 0.866152
378.600 0.851880
378.700 0.827194
378.800 0.809740
378.900 0.802411
379.000 0.799036
379.100 0.791128
379.200 0.771553
379.300 0.748505
379.400 0.707425
379.500 0.658727
379.600 0.608582
379.700 0.556606
379.800 0.530087
379.900 0.542237
380.000 0.604050
380.100 0.683414
380.200 0.754484
380.300 0.791610
380.400 0.822758
380.500 0.830665
380.600 0.836162
380.700 0.847155
380.800 0.864417
380.900 0.890550
381.000 0.909161
381.100 0.916104
381.200 0.898168
381.300 0.874638
381.400 0.851591
381.500 0.848312
381.600 0.858245
381.700 0.874831
381.800 0.888717
381.900 0.873095
382.000 0.852941
382.100 0.837126
382.200 0.837223
382.300 0.843105
382.400 0.821794
382.500 0.790743
382.600 0.766249
382.700 0.753134
382.800 0.736066
382.900 0.722083
383.000 0.704629
383.100 0.672613
383.200 0.635198
383.300 0.565959
383.400 0.516201
383.500 0.489392
383.600 0.496046
383.700 0.525072
383.800 0.579171
383.900 0.620926
384.000 0.666152
384.100 0.711765
384.200 0.753423
384.300 0.801736
384.400 0.834233
384.500 0.857570
384.600 0.875313
384.700 0.892864
384.800 0.906943
384.900 0.908582
385.000 0.905400
385.100 0.915333
385.200 0.938380
385.300 0.960559
385.400 0.966249
385.500 0.957088
385.600 0.943202
385.700 0.931533
385.800 0.921215
385.900 0.918226
386.000 0.924590
386.100 0.940019
386.200 0.955352
386.300 0.966249
386.400 0.966249
386.500 0.961427
386.600 0.960656
386.700 0.963452
386.800 0.968177
386.900 0.966249
387.000 0.947637
387.100 0.925940
387.200 0.894311
387.300 0.876760
387.400 0.871553
387.500 0.883124
387.600 0.887078
387.700 0.864031
387.800 0.840984
387.900 0.821311
388.000 0.822372
388.100 0.824204
388.200 0.810897
388.300 0.789971
388.400 0.756606
388.500 0.719961
388.600 0.665574
388.700 0.596914
388.800 0.549952
388.900 0.535005
389.000 0.559209
389.100 0.624397
389.200 0.687175
389.300 0.729894
389.400 0.753423
389.500 0.768467
389.600 0.795468
389.700 0.819672
389.800 0.845034
389.900 0.854195
390.000 0.859788
390.100 0.877242
390.200 0.891418
390.300 0.905111
390.400 0.900868
390.500 0.900771
390.600 0.907715
390.700 0.921215
390.800 0.951784
390.900 0.984571
391.000 1.001929
391.100 1.003857
391.200 1.001929
391.300 0.994214
391.400 0.980714
391.500 0.974928
391.600 0.978785
391.700 0.980714
391.800 0.974928
391.900 0.968177
392.000 0.967213
392.100 0.964320
392.200 0.965284
392.300 0.969142
392.400 0.969142
392.500 0.965284
392.600 0.940694
392.700 0.907425
392.800 0.861524
392.900 0.805207
393.000 0.744841
393.100 0.647252
393.200 0.530376
393.300 0.441948
393.400 0.416876
393.500 0.488139
393.600 0.595082
393.700 0.704725
393.800 0.799711
393.900 0.860945
394.000 0.899807
394.100 0.923722
394.200 0.931051
394.300 0.938091
394.400 0.946673
394.500 0.949180
394.600 0.957666
394.700 0.963163
394.800 0.963356
394.900 0.954773
395.000 0.946480
395.100 0.944937
395.200 0.939634
395.300 0.940694
395.400 0.939826
395.500 0.935873
395.600 0.924494
395.700 0.906365
395.800 0.900482
395.900 0.894986
396.000 0.874349
396.100 0.843684
396.200 0.794600
396.300 0.748795
396.400 0.703568
396.500 0.632498
396.600 0.541755
396.700 0.422372
396.800 0.331051
396.900 0.284860
397.000 0.319190
397.100 0.403472
397.200 0.514272
397.300 0.606557
397.400 0.687078
397.500 0.740405
397.600 0.791610
397.700 0.829894
397.800 0.862006
397.900 0.891321
398.000 0.907811
398.100 0.919769
398.200 0.925844
398.300 0.933944
398.400 0.949180
398.500 0.971070
398.600 0.987464
398.700 0.996143
398.800 1.009643
398.900 1.016393
399.000 1.021215
399.100 1.029894
399.200 1.038573
399.300 1.054002
399.400 1.056895
399.500 1.049180
399.600 1.028930
399.700 1.017358
399.800 1.020251
399.900 1.032787
400.000 1.046287
400.100 1.058824
400.200 1.063645
400.300 1.061716
400.400 1.052073
400.500 1.039537
400.600 1.036644
400.700 1.045323
400.800 1.069431
400.900 1.085824
401.000 1.090646
401.100 1.090646
401.200 1.086789
401.300 1.081967
401.400 1.081967
401.500 1.088717
401.600 1.095468
401.700 1.103182
401.800 1.108004
401.900 1.113790
402.000 1.118611
402.100 1.115718
402.200 1.108004
402.300 1.100289
402.400 1.097396
402.500 1.100289
402.600 1.107040
402.700 1.122469
402.800 1.124397
402.900 1.113790
403.000 1.091610
403.100 1.073288
403.200 1.066538
403.300 1.070395
403.400 1.079074
403.500 1.095468
403.600 1.114754
403.700 1.135969
403.800 1.145612
403.900 1.142719
404.000 1.134041
404.100 1.124397
404.200 1.121504
404.300 1.110897
404.400 1.084860
404.500 1.061716
404.600 1.049180
404.700 1.068467
404.800 1.100289
404.900 1.123433
405.000 1.129219
405.100 1.130183
405.200 1.123433
405.300 1.116683
405.400 1.108968
405.500 1.102218
405.600 1.099325
405.700 1.098361
405.800 1.101254
405.900 1.116683
406.000 1.125362
406.100 1.122469
406.200 1.102218
406.300 1.075217
406.400 1.055931
406.500 1.049180
406.600 1.059788
406.700 1.068467
406.800 1.069431
406.900 1.067502
407.000 1.062681
407.100 1.047252
407.200 1.032787
407.300 1.032787
407.400 1.043394
407.500 1.047252
407.600 1.023144
407.700 0.999036
407.800 0.983607
407.900 0.997107
408.000 1.025072
408.100 1.044359
408.200 1.045323
408.300 1.034716
408.400 1.024108
408.500 1.012536
408.600 1.013500
408.700 1.017358
408.800 1.023144
408.900 1.025072
409.000 1.017358
409.100 1.007715
409.200 0.993250
409.300 0.969142
409.400 0.951591
409.500 0.929122
409.600 0.904050
409.700 0.868852
409.800 0.828737
409.900 0.781485
410.000 0.703857
410.100 0.648602
410.200 0.620251
410.300 0.660463
410.400 0.736837
410.500 0.818033
410.600 0.864224
410.700 0.895950
410.800 0.909065
410.900 0.923722
411.000 0.938284
411.100 0.950820
411.200 0.972999
411.300 0.991321
411.400 1.011572
411.500 1.026037
411.600 1.032787
411.700 1.031823
411.800 1.027965
411.900 1.022179
412.000 1.023144
412.100 1.031823
412.200 1.041466
412.300 1.048216
412.400 1.058824
412.500 1.064609
412.600 1.067502
412.700 1.067502
412.800 1.065574
412.900 1.065574
413.000 1.060752
413.100 1.054002
413.200 1.046287
413.300 1.045323
413.400 1.055931
413.500 1.071360
413.600 1.087753
413.700 1.104147
413.800 1.115718
413.900 1.125362
414.000 1.125362
414.100 1.113790
414.200 1.095468
414.300 1.077146
414.400 1.070395
414.500 1.075217
414.600 1.096432
414.700 1.107040
414.800 1.107040
414.900 1.105111
415.000 1.105111
415.100 1.108004
415.200 1.104147
415.300 1.095468
415.400 1.088717
415.500 1.086789
