# Wavelength (nm)   F_lamA (normalized erg/cm2/s/A)9.100 0.000021
9.400 0.000032
9.600 0.000042
9.800 0.000053
10.000 0.000067
10.200 0.000084
10.400 0.000103
10.600 0.000127
10.800 0.000154
11.000 0.000185
11.400 0.000263
11.800 0.000362
12.100 0.000453
12.500 0.000598
12.700 0.000682
12.800 0.000727
13.100 0.000874
13.200 0.000927
13.400 0.001040
13.700 0.001225
14.000 0.001431
14.300 0.001659
14.700 0.001996
15.100 0.002372
15.500 0.002785
15.900 0.003238
16.200 0.003602
16.600 0.004120
17.000 0.004673
17.300 0.005109
17.700 0.005719
18.000 0.006195
18.200 0.006521
18.600 0.007195
19.100 0.008069
19.400 0.008608
19.800 0.009345
20.200 0.010096
20.500 0.010669
21.000 0.011636
21.600 0.012811
22.000 0.013606
22.300 0.014189
22.700 0.014975
23.000 0.134463
23.400 0.133189
24.000 0.131685
24.600 0.130777
25.200 0.129814
25.700 0.124990
26.000 0.126548
26.400 0.126724
26.900 0.124678
27.400 0.122700
27.900 0.119406
28.400 0.118363
29.000 0.115531
29.600 0.111451
30.100 0.104716
30.800 0.102927
31.800 0.101721
32.800 0.097669
33.800 0.093210
34.800 0.089023
35.700 0.086163
36.600 0.083629
37.500 0.080323
38.500 0.075986
39.500 0.073696
40.500 0.071067
41.400 0.068424
42.200 0.065876
43.000 0.063572
44.100 0.061187
45.100 0.058748
46.000 0.056336
47.000 0.054072
48.000 0.052121
49.000 0.049776
50.000 0.048177
50.600 0.048015
51.200 0.049885
52.000 0.048204
53.000 0.046280
54.000 0.043827
55.000 0.042214
56.000 0.041794
57.000 0.040466
58.000 0.038840
59.000 0.037715
60.000 0.036143
61.000 0.034747
62.000 0.034232
63.000 0.032999
64.000 0.032118
65.000 0.030993
65.800 0.030004
66.500 0.029625
67.500 0.028839
68.500 0.027605
69.500 0.027117
70.500 0.025898
71.600 0.025532
72.600 0.024841
73.500 0.024231
74.500 0.023458
75.500 0.022767
76.500 0.021981
77.500 0.021521
78.500 0.020911
79.500 0.020396
80.500 0.019894
81.500 0.019420
82.500 0.018959
83.500 0.018078
84.500 0.017983
85.500 0.017509
86.500 0.017157
87.500 0.016750
88.500 0.016344
89.500 0.015951
90.500 0.015503
91.500 0.018227
92.500 0.026006
93.500 0.033229
94.500 0.043448
95.500 0.047093
96.500 0.052175
97.500 0.034083
98.500 0.051240
99.500 0.048652
100.500 0.050671
101.500 0.048448
102.500 0.033297
103.500 0.044410
104.500 0.049546
105.500 0.048475
106.500 0.045535
107.500 0.046307
108.500 0.043095
109.500 0.045264
110.500 0.043624
111.500 0.042946
112.500 0.040819
113.500 0.041713
114.500 0.040154
115.500 0.039856
116.500 0.039409
117.500 0.035073
118.500 0.037390
119.500 0.034978
120.500 0.031983
121.500 0.022307
122.500 0.031549
123.500 0.033622
124.500 0.033690
125.500 0.033351
126.500 0.032552
127.500 0.032769
128.500 0.032416
129.500 0.030898
130.500 0.030505
131.500 0.030993
132.500 0.030234
133.500 0.029326
134.500 0.029733
135.500 0.029381
136.500 0.028771
137.500 0.028595
138.500 0.028554
139.500 0.027294
140.500 0.027145
141.500 0.028432
142.500 0.028120
143.500 0.028242
144.200 0.029055
144.700 0.028486
145.500 0.029313
146.500 0.028364
147.500 0.028893
148.500 0.029326
149.500 0.029747
150.500 0.030722
151.200 0.030668
151.700 0.029977
152.500 0.031508
153.500 0.032985
154.500 0.033582
155.500 0.036861
156.500 0.036943
157.500 0.044437
158.500 0.051199
159.500 0.054005
160.500 0.049248
161.500 0.057000
162.500 0.056851
163.500 0.059900
164.500 0.074671
165.500 0.059019
166.500 0.088128
167.200 0.073709
167.700 0.096531
168.500 0.104662
169.500 0.100474
170.500 0.106329
171.500 0.117645
172.500 0.119542
173.500 0.130356
174.500 0.129435
175.500 0.140263
176.500 0.122645
177.500 0.137553
178.500 0.142838
179.500 0.155983
180.500 0.168722
181.500 0.171026
182.500 0.162353
183.500 0.168722
184.500 0.150291
185.500 0.162217
186.500 0.173872
187.500 0.174007
188.500 0.176989
189.500 0.184713
190.500 0.179022
191.500 0.190270
192.500 0.194606
193.500 0.177666
194.500 0.203415
195.500 0.205448
196.700 0.218187
197.600 0.212359
198.400 0.212088
199.500 0.211411
200.500 0.202466
201.500 0.209513
202.500 0.193251
203.500 0.218187
204.500 0.231332
205.500 0.228215
206.500 0.225505
207.400 0.246104
207.800 0.249763
208.500 0.248679
209.500 0.242174
210.500 0.236346
211.500 0.246510
212.500 0.246239
213.500 0.227267
214.500 0.251118
215.500 0.248679
216.500 0.236075
217.500 0.237566
218.500 0.251931
219.500 0.271853
220.500 0.263179
221.500 0.245697
222.500 0.256268
223.500 0.287031
224.500 0.269142
225.500 0.253557
226.500 0.245833
227.500 0.265212
228.500 0.278358
229.500 0.260604
230.500 0.278493
231.500 0.279442
232.500 0.250169
233.500 0.261689
234.500 0.227809
235.500 0.283778
236.500 0.241767
237.500 0.268600
238.500 0.218187
239.500 0.247323
240.500 0.243529
241.500 0.250034
242.500 0.294755
243.500 0.287573
244.500 0.305597
245.500 0.304106
246.500 0.305732
247.500 0.285811
248.500 0.271175
249.500 0.272530
250.500 0.321453
251.300 0.272124
251.800 0.245833
252.500 0.240276
253.500 0.258572
254.500 0.265483
255.500 0.302209
256.500 0.295840
257.500 0.323486
258.500 0.321453
259.500 0.314948
260.500 0.299228
261.500 0.284862
262.500 0.322943
263.500 0.348828
264.500 0.405475
265.500 0.424990
266.500 0.385554
267.500 0.408592
268.500 0.423364
269.500 0.383792
270.500 0.400054
271.500 0.363870
272.500 0.365497
273.500 0.390703
274.500 0.318878
275.500 0.349505
276.500 0.387451
277.500 0.409270
278.500 0.372137
279.500 0.212359
280.500 0.251796
281.500 0.424448
282.500 0.446266
283.500 0.437729
284.500 0.415639
285.500 0.351267
286.500 0.438271
287.500 0.446673
288.500 0.450061
289.500 0.454804
291.000 0.498984
293.000 0.487058
295.000 0.481095
297.000 0.488955
299.000 0.497493
301.000 0.505218
303.000 0.511587
305.000 0.524732
307.000 0.520531
309.000 0.521480
311.000 0.526494
313.000 0.524597
315.000 0.525274
317.000 0.540859
319.000 0.518092
321.000 0.542079
323.000 0.524190
325.000 0.565524
327.000 0.597371
329.000 0.598726
331.000 0.600488
332.200 0.564440
332.300 0.528933
332.400 0.520531
332.500 0.538420
332.600 0.536387
332.700 0.524461
332.800 0.526765
332.900 0.538013
333.000 0.565659
333.100 0.580973
333.200 0.572435
333.300 0.573384
333.400 0.561323
333.500 0.554005
333.600 0.540453
333.700 0.531508
333.800 0.544654
333.900 0.557257
334.000 0.562000
334.100 0.565659
334.200 0.557257
334.300 0.566879
334.400 0.582599
334.500 0.581651
334.600 0.576907
334.700 0.548042
334.800 0.520667
334.900 0.501423
335.000 0.520802
335.100 0.534896
335.200 0.531644
335.300 0.533812
335.400 0.552649
335.500 0.580702
335.600 0.576501
335.700 0.548177
335.800 0.492479
335.900 0.446809
336.000 0.418756
336.100 0.438000
336.200 0.470931
336.300 0.515788
336.400 0.546009
336.500 0.537878
336.600 0.528256
336.700 0.525003
336.800 0.515788
336.900 0.508334
337.000 0.470389
337.100 0.442607
337.200 0.444234
337.300 0.473370
337.400 0.507521
337.500 0.541672
337.600 0.555360
337.700 0.551023
337.800 0.532999
337.900 0.516872
338.000 0.519312
338.100 0.527443
338.200 0.534490
338.300 0.540588
338.400 0.548177
338.500 0.559696
338.600 0.550481
338.700 0.526088
338.800 0.510638
338.900 0.528391
339.000 0.548990
339.100 0.565253
339.200 0.550075
339.300 0.531237
339.400 0.536523
339.500 0.550888
339.600 0.576907
339.700 0.592763
339.800 0.605773
339.900 0.613091
340.000 0.608619
340.100 0.595609
340.200 0.563898
340.300 0.552243
340.400 0.541808
340.500 0.553327
340.600 0.558883
340.700 0.551430
340.800 0.534083
340.900 0.532728
341.000 0.555495
341.100 0.554953
341.200 0.546822
341.300 0.527849
341.400 0.524597
341.500 0.547500
341.600 0.569996
341.700 0.581786
341.800 0.588291
341.900 0.591679
342.000 0.598320
342.100 0.600081
342.200 0.580024
342.300 0.552243
342.400 0.542214
342.500 0.550888
342.600 0.561052
342.700 0.575552
342.800 0.599539
342.900 0.621493
343.000 0.634232
343.100 0.609161
343.200 0.580431
343.300 0.566337
343.400 0.584090
343.500 0.613091
343.600 0.618105
343.700 0.600081
343.800 0.578534
343.900 0.559019
344.000 0.543299
344.100 0.524190
344.200 0.513484
344.300 0.513484
344.400 0.523377
344.500 0.537742
344.600 0.564304
344.700 0.598049
344.800 0.620816
344.900 0.631657
345.000 0.613769
345.100 0.582057
345.200 0.558477
345.300 0.555902
345.400 0.566337
345.500 0.581515
345.600 0.588156
345.700 0.588427
345.800 0.582328
345.900 0.572164
346.000 0.554411
346.100 0.542485
346.200 0.555766
346.300 0.566066
346.400 0.576230
346.500 0.567150
346.600 0.566201
346.700 0.582599
346.800 0.606722
346.900 0.625830
347.000 0.632335
347.100 0.623255
347.200 0.611058
347.300 0.580838
347.400 0.555089
347.500 0.544789
347.600 0.546009
347.700 0.572300
347.800 0.596829
347.900 0.610652
348.000 0.624610
348.100 0.625830
348.200 0.619867
348.300 0.614446
348.400 0.608890
348.500 0.615395
348.600 0.630031
348.700 0.630573
348.800 0.619732
348.900 0.598049
349.000 0.578398
349.100 0.583412
349.200 0.601437
349.300 0.605096
349.400 0.599675
349.500 0.587478
349.600 0.574333
349.700 0.578263
349.800 0.577314
349.900 0.584903
350.000 0.589240
350.100 0.588562
350.200 0.598049
350.300 0.602792
350.400 0.604825
350.500 0.595067
350.600 0.583819
350.700 0.578805
350.800 0.574062
350.900 0.581651
351.000 0.584090
351.100 0.583412
351.200 0.575417
351.300 0.564982
351.400 0.566743
351.500 0.579076
351.600 0.610787
351.700 0.636672
351.800 0.640331
351.900 0.615531
352.000 0.592763
352.100 0.580431
352.200 0.573384
352.300 0.566472
352.400 0.550888
352.500 0.538284
352.600 0.547229
352.700 0.563220
352.800 0.585445
352.900 0.606451
353.000 0.620138
353.100 0.630438
353.200 0.623933
353.300 0.595609
353.400 0.577721
353.500 0.574875
353.600 0.600894
353.700 0.634774
353.800 0.649953
353.900 0.656593
354.000 0.651714
354.100 0.645074
354.200 0.643041
354.300 0.653070
354.400 0.662420
354.500 0.659303
354.600 0.653476
354.700 0.644261
354.800 0.638975
354.900 0.642499
355.000 0.653341
355.100 0.665944
355.200 0.660388
355.300 0.639653
355.400 0.623933
355.500 0.626237
355.600 0.638840
355.700 0.657271
355.800 0.668112
355.900 0.666486
356.000 0.662827
356.100 0.661336
356.200 0.656322
356.300 0.642092
356.400 0.620951
356.500 0.597235
356.600 0.585039
356.700 0.585852
356.800 0.588698
356.900 0.587342
357.000 0.573384
357.100 0.561729
357.200 0.561052
357.300 0.565388
357.400 0.572842
357.500 0.584903
357.600 0.595609
357.700 0.605367
357.800 0.614582
357.900 0.608484
358.000 0.591679
358.100 0.573926
358.200 0.560916
358.300 0.563627
358.400 0.562407
358.500 0.544925
358.600 0.518905
358.700 0.506708
358.800 0.520938
358.900 0.555360
359.000 0.586665
359.100 0.603198
359.200 0.604689
359.300 0.603469
359.400 0.608077
359.500 0.624204
359.600 0.639111
359.700 0.646565
359.800 0.647784
359.900 0.646700
360.000 0.645074
360.100 0.628405
360.200 0.613091
360.300 0.605096
360.400 0.612956
360.500 0.621358
360.600 0.616615
360.700 0.607264
360.800 0.597371
360.900 0.594525
361.000 0.593576
361.100 0.597777
361.200 0.608890
361.300 0.618241
361.400 0.629083
361.500 0.652256
361.600 0.654967
361.700 0.642092
361.800 0.618241
361.900 0.595745
362.000 0.604282
362.100 0.624068
362.200 0.638840
362.300 0.648326
362.400 0.655780
362.500 0.673669
362.600 0.697927
362.700 0.722320
362.800 0.716493
362.900 0.685459
363.000 0.637756
363.100 0.607399
363.200 0.610110
363.300 0.633284
363.400 0.648326
363.500 0.646294
363.600 0.645887
363.700 0.660794
363.800 0.678818
363.900 0.688847
364.000 0.690744
364.100 0.683290
364.200 0.667570
364.300 0.654018
364.400 0.644532
364.500 0.638840
364.600 0.635316
364.700 0.633961
364.800 0.634097
364.900 0.631522
365.000 0.632199
365.100 0.637891
365.200 0.654154
365.300 0.670552
365.400 0.687898
365.500 0.705109
365.600 0.716764
365.700 0.721642
365.800 0.718797
365.900 0.716628
366.000 0.714324
366.100 0.704431
366.200 0.692912
366.300 0.683697
366.400 0.685730
366.500 0.694403
366.600 0.698062
366.700 0.697656
366.800 0.687356
366.900 0.676108
367.000 0.671907
367.100 0.677463
367.200 0.690473
367.300 0.699959
367.400 0.698875
367.500 0.692235
367.600 0.676243
367.700 0.656729
367.800 0.641686
367.900 0.641686
368.000 0.649682
368.100 0.654425
368.200 0.660388
368.300 0.660794
368.400 0.660252
368.500 0.652798
368.600 0.646565
368.700 0.649275
368.800 0.665402
368.900 0.689118
369.000 0.698604
369.100 0.699959
369.200 0.697249
369.300 0.695352
369.400 0.697927
369.500 0.703889
369.600 0.701044
369.700 0.691422
369.800 0.699824
369.900 0.719881
370.000 0.746578
370.100 0.745223
370.200 0.709039
370.300 0.659574
370.400 0.620816
370.500 0.608755
370.600 0.618241
370.700 0.635045
370.800 0.654154
370.900 0.657677
371.000 0.642906
371.100 0.626914
371.200 0.628947
371.300 0.658084
371.400 0.700366
371.500 0.736685
371.600 0.755522
371.700 0.756471
371.800 0.733026
371.900 0.684646
372.000 0.608755
372.100 0.554276
372.200 0.552378
372.300 0.595474
372.400 0.662149
372.500 0.712698
372.600 0.731806
372.700 0.737227
372.800 0.740344
372.900 0.744952
373.000 0.744816
373.100 0.720965
373.200 0.650901
373.300 0.576094
373.400 0.520260
373.500 0.504946
373.600 0.537878
373.700 0.603740
373.800 0.662962
373.900 0.723675
374.000 0.762705
374.100 0.775308
374.200 0.757420
374.300 0.734923
374.400 0.709310
374.500 0.683290
374.600 0.662014
374.700 0.627321
374.800 0.587207
374.900 0.548855
375.000 0.530424
375.100 0.563762
375.200 0.630844
375.300 0.702670
375.400 0.754438
375.500 0.783439
375.600 0.786285
375.700 0.761756
375.800 0.738176
375.900 0.727334
376.000 0.725573
376.100 0.743732
376.200 0.758639
376.300 0.763112
376.400 0.757691
376.500 0.744681
376.600 0.728283
376.700 0.701315
376.800 0.654831
376.900 0.606586
377.000 0.573384
377.100 0.582870
377.200 0.626508
377.300 0.689253
377.400 0.736685
377.500 0.758097
377.600 0.765686
377.700 0.781000
377.800 0.808240
377.900 0.838054
378.000 0.864345
378.100 0.874780
378.200 0.873560
378.300 0.864345
378.400 0.855807
378.500 0.841035
378.600 0.824909
378.700 0.804987
378.800 0.789673
378.900 0.785879
379.000 0.787234
379.100 0.784117
379.200 0.774766
379.300 0.750508
379.400 0.712292
379.500 0.662827
379.600 0.610923
379.700 0.562813
379.800 0.541808
379.900 0.563898
380.000 0.639247
380.100 0.713511
380.200 0.775037
380.300 0.803767
380.400 0.818268
380.500 0.819623
380.600 0.819352
380.700 0.825586
380.800 0.844017
380.900 0.867326
381.000 0.886977
381.100 0.888738
381.200 0.861905
381.300 0.830600
381.400 0.803903
381.500 0.801464
381.600 0.817861
381.700 0.841035
381.800 0.849302
381.900 0.830465
382.000 0.807020
382.100 0.794417
382.200 0.803903
382.300 0.808646
382.400 0.786014
382.500 0.758097
382.600 0.738718
382.700 0.724624
382.800 0.713511
382.900 0.702399
383.000 0.688169
383.100 0.663911
383.200 0.626372
383.300 0.566472
383.400 0.512536
383.500 0.492885
383.600 0.502778
383.700 0.537336
383.800 0.582328
383.900 0.624610
384.000 0.662014
384.100 0.704974
384.200 0.746307
384.300 0.790893
384.400 0.822605
384.500 0.837647
384.600 0.852148
384.700 0.868004
384.800 0.876542
384.900 0.871663
385.000 0.864887
385.100 0.875186
385.200 0.896869
385.300 0.918146
385.400 0.917468
385.500 0.904594
385.600 0.885892
385.700 0.872611
385.800 0.856485
385.900 0.850115
386.000 0.857027
386.100 0.878303
386.200 0.900393
386.300 0.915165
386.400 0.913132
386.500 0.907033
386.600 0.907847
386.700 0.911912
386.800 0.918417
386.900 0.916655
387.000 0.901613
387.100 0.880336
387.200 0.852690
387.300 0.837647
387.400 0.837241
387.500 0.849302
387.600 0.848896
387.700 0.829516
387.800 0.806478
387.900 0.794688
388.000 0.805123
388.100 0.811357
388.200 0.799702
388.300 0.780187
388.400 0.754845
388.500 0.714867
388.600 0.660117
388.700 0.594525
388.800 0.547500
388.900 0.540317
389.000 0.577585
389.100 0.639653
389.200 0.702263
389.300 0.735194
389.400 0.750373
389.500 0.765280
389.600 0.783033
389.700 0.803767
389.800 0.822605
389.900 0.826670
390.000 0.833582
390.100 0.846863
390.200 0.851064
390.300 0.852826
390.400 0.841848
390.500 0.838732
390.600 0.845643
390.700 0.868817
390.800 0.898902
390.900 0.928446
391.000 0.942811
391.100 0.944979
391.200 0.944708
391.300 0.939965
391.400 0.923567
391.500 0.914080
391.600 0.914758
391.700 0.912996
391.800 0.903510
391.900 0.891313
392.000 0.887790
392.100 0.884808
392.200 0.886977
392.300 0.894295
392.400 0.893888
392.500 0.888467
392.600 0.860550
392.700 0.821385
392.800 0.770294
392.900 0.704838
393.000 0.632471
393.100 0.520125
393.200 0.403713
393.300 0.319420
393.400 0.310747
393.500 0.379726
393.600 0.505082
393.700 0.610381
393.800 0.713782
393.900 0.781949
394.000 0.825451
394.100 0.852148
394.200 0.862854
394.300 0.862176
394.400 0.867733
394.500 0.878303
394.600 0.895243
394.700 0.904594
394.800 0.900935
394.900 0.892668
395.000 0.887112
395.100 0.883860
395.200 0.881420
395.300 0.891720
395.400 0.896869
395.500 0.892804
395.600 0.881014
395.700 0.865022
395.800 0.864209
395.900 0.865293
396.000 0.841713
396.100 0.809595
396.200 0.766093
396.300 0.722727
396.400 0.685594
396.500 0.609161
396.600 0.513213
396.700 0.391381
396.800 0.303700
396.900 0.276325
397.000 0.333107
397.100 0.425396
397.200 0.539911
397.300 0.622036
397.400 0.691828
397.500 0.744952
397.600 0.786556
397.700 0.822198
397.800 0.851199
397.900 0.877084
398.000 0.888603
398.100 0.889145
398.200 0.891991
398.300 0.898767
398.400 0.913403
398.500 0.931020
398.600 0.943759
398.700 0.955821
398.800 0.968017
398.900 0.971270
399.000 0.973303
399.100 0.980079
399.200 0.990920
399.300 1.003388
399.400 1.005285
399.500 0.994308
399.600 0.969915
399.700 0.954872
399.800 0.957176
399.900 0.978452
400.000 0.994715
400.100 1.006098
400.200 1.007454
400.300 1.002846
400.400 0.986990
400.500 0.969102
400.600 0.968288
400.700 0.982653
400.800 1.007996
400.900 1.023445
401.000 1.028866
401.100 1.029543
401.200 1.028188
401.300 1.025342
401.400 1.026697
401.500 1.033880
401.600 1.039572
401.700 1.041469
401.800 1.046619
401.900 1.052311
402.000 1.057731
402.100 1.054614
402.200 1.046348
402.300 1.039301
402.400 1.034558
402.500 1.036319
402.600 1.046483
402.700 1.062068
402.800 1.062610
402.900 1.050413
403.000 1.022767
403.100 1.001220
403.200 0.992546
403.300 0.996205
403.400 1.007047
403.500 1.028053
403.600 1.052040
403.700 1.076975
403.800 1.085377
403.900 1.082125
404.000 1.072910
404.100 1.064507
404.200 1.061255
404.300 1.045670
404.400 1.016669
404.500 0.988074
404.600 0.978859
404.700 1.003930
404.800 1.038894
404.900 1.065321
405.000 1.068708
405.100 1.068166
405.200 1.060713
405.300 1.049600
405.400 1.042418
405.500 1.037674
405.600 1.036048
405.700 1.035642
405.800 1.039436
405.900 1.055292
406.000 1.065185
406.100 1.060577
406.200 1.028053
406.300 1.000949
406.400 0.987397
406.500 0.988481
406.600 0.998509
406.700 1.006640
406.800 1.008809
406.900 1.009893
407.000 1.004472
407.100 0.985093
407.200 0.974522
407.300 0.979401
407.400 0.989701
407.500 0.987126
407.600 0.964087
407.700 0.940642
407.800 0.927226
407.900 0.945250
408.000 0.974522
408.100 0.999322
408.200 1.003524
408.300 0.991462
408.400 0.976826
408.500 0.967882
408.600 0.973709
408.700 0.984280
408.800 0.996205
408.900 0.998374
409.000 0.994579
409.100 0.986041
409.200 0.976555
409.300 0.959751
409.400 0.942811
409.500 0.922212
409.600 0.897954
409.700 0.869495
409.800 0.831956
409.900 0.783846
410.000 0.709175
410.100 0.649953
410.200 0.630573
410.300 0.683968
410.400 0.759181
410.500 0.832769
410.600 0.873018
410.700 0.895650
410.800 0.909066
410.900 0.918688
411.000 0.930072
411.100 0.941320
411.200 0.956227
411.300 0.971405
411.400 0.988210
411.500 1.003117
411.600 1.006369
411.700 1.000678
411.800 0.991327
411.900 0.980214
412.000 0.980621
412.100 0.987668
412.200 0.997019
412.300 1.003524
412.400 1.008673
412.500 1.015449
412.600 1.017075
412.700 1.013281
412.800 1.010435
412.900 1.012197
413.000 1.009215
413.100 0.999187
413.200 0.985093
413.300 0.984686
413.400 0.998238
413.500 1.017347
413.600 1.034693
413.700 1.049329
413.800 1.062475
413.900 1.073994
414.000 1.070877
414.100 1.054885
414.200 1.029950
414.300 1.008267
414.400 1.005421
414.500 1.018024
414.600 1.038623
414.700 1.045535
414.800 1.044722
414.900 1.044857
415.000 1.046077
415.100 1.047703
415.200 1.041469
415.300 1.032796
415.400 1.024258
415.500 1.021683
