# Wavelength (nm)   F_lamA (normalized erg/cm2/s/A)9.100 0.000024
9.400 0.000036
9.600 0.000046
9.800 0.000059
10.000 0.000075
10.200 0.000093
10.400 0.000116
10.600 0.000142
10.800 0.000172
11.000 0.000207
11.400 0.000294
11.800 0.000405
12.100 0.000507
12.500 0.000669
12.700 0.000763
12.800 0.000813
13.100 0.000977
13.200 0.001036
13.400 0.001163
13.700 0.001370
14.000 0.001601
14.300 0.001855
14.700 0.002231
15.100 0.002652
15.500 0.003114
15.900 0.003620
16.200 0.004026
16.600 0.004605
17.000 0.005222
17.300 0.005710
17.700 0.006390
18.000 0.006922
18.200 0.007287
18.600 0.008036
19.100 0.009012
19.400 0.009613
19.800 0.010434
20.200 0.011273
20.500 0.011910
21.000 0.012987
21.600 0.014296
22.000 0.015175
22.300 0.015833
22.700 0.016712
23.000 0.149722
23.400 0.148473
24.000 0.147422
24.600 0.147243
25.200 0.146430
25.700 0.139607
26.000 0.142622
26.400 0.142582
26.900 0.140182
27.400 0.137961
27.900 0.134510
28.400 0.132884
29.000 0.129611
29.600 0.125030
30.100 0.116858
30.800 0.115093
31.800 0.114359
32.800 0.109818
33.800 0.104859
34.800 0.100198
35.700 0.096747
36.600 0.093495
37.500 0.089786
38.500 0.085026
39.500 0.082249
40.500 0.079155
41.400 0.076160
42.200 0.073344
43.000 0.070845
44.100 0.068029
45.100 0.065252
46.000 0.062614
47.000 0.060056
48.000 0.057834
49.000 0.055296
50.000 0.053392
50.600 0.053233
51.200 0.054919
52.000 0.053154
53.000 0.051190
54.000 0.048631
55.000 0.046906
56.000 0.046033
57.000 0.044486
58.000 0.042701
59.000 0.041452
60.000 0.039825
61.000 0.038278
62.000 0.037465
63.000 0.036136
64.000 0.035105
65.000 0.033895
65.800 0.032844
66.500 0.032348
67.500 0.031436
68.500 0.030167
69.500 0.029532
70.500 0.028342
71.600 0.027747
72.600 0.026973
73.500 0.026299
74.500 0.025486
75.500 0.024732
76.500 0.023919
77.500 0.023384
78.500 0.022709
79.500 0.022134
80.500 0.021579
81.500 0.021043
82.500 0.020528
83.500 0.019699
84.500 0.019474
85.500 0.018957
86.500 0.018550
87.500 0.018104
88.500 0.017664
89.500 0.017235
90.500 0.016757
91.500 0.019738
92.500 0.028203
93.500 0.036474
94.500 0.049008
95.500 0.053213
96.500 0.059520
97.500 0.039508
98.500 0.059282
99.500 0.056545
100.500 0.058489
101.500 0.055454
102.500 0.037088
103.500 0.051230
104.500 0.056267
105.500 0.055256
106.500 0.052281
107.500 0.052797
108.500 0.049425
109.500 0.051448
110.500 0.049762
111.500 0.049008
112.500 0.046827
113.500 0.047362
114.500 0.045756
115.500 0.045319
116.500 0.044704
117.500 0.040460
118.500 0.042404
119.500 0.039905
120.500 0.036632
121.500 0.024752
122.500 0.035680
123.500 0.037921
124.500 0.037902
125.500 0.037624
126.500 0.036831
127.500 0.036870
128.500 0.036474
129.500 0.035145
130.500 0.034887
131.500 0.035641
132.500 0.035482
133.500 0.035224
134.500 0.036493
135.500 0.036652
136.500 0.037128
137.500 0.037862
138.500 0.038635
139.500 0.038556
140.500 0.038913
141.500 0.041134
142.500 0.041154
143.500 0.041115
144.200 0.043356
144.700 0.042761
145.500 0.044903
146.500 0.043257
147.500 0.044566
148.500 0.045399
149.500 0.046251
150.500 0.047957
151.200 0.047798
151.700 0.047164
152.500 0.048572
153.500 0.049147
154.500 0.049881
155.500 0.052499
156.500 0.051765
157.500 0.058687
158.500 0.065272
159.500 0.069238
160.500 0.063824
161.500 0.071856
162.500 0.072273
163.500 0.074673
164.500 0.089171
165.500 0.074217
166.500 0.103074
167.200 0.089349
167.700 0.108588
168.500 0.117156
169.500 0.115609
170.500 0.121539
171.500 0.132626
172.500 0.134907
173.500 0.145656
174.500 0.145002
175.500 0.155335
176.500 0.139806
177.500 0.154304
178.500 0.159203
179.500 0.171579
180.500 0.195319
181.500 0.197600
182.500 0.189072
183.500 0.197045
184.500 0.178719
185.500 0.190896
186.500 0.202301
187.500 0.202697
188.500 0.205871
189.500 0.213804
190.500 0.208449
191.500 0.219952
192.500 0.226299
193.500 0.211622
194.500 0.234232
195.500 0.236216
196.700 0.248711
197.600 0.242761
198.400 0.242562
199.500 0.242959
200.500 0.234034
201.500 0.241571
202.500 0.225506
203.500 0.251488
204.500 0.263983
205.500 0.260611
206.500 0.259024
207.400 0.279453
207.800 0.279651
208.500 0.278858
209.500 0.273106
210.500 0.268544
211.500 0.278858
212.500 0.279651
213.500 0.263189
214.500 0.284808
215.500 0.282031
216.500 0.270131
217.500 0.272114
218.500 0.285601
219.500 0.306228
220.500 0.298096
221.500 0.282626
222.500 0.294526
223.500 0.323284
224.500 0.306426
225.500 0.292344
226.500 0.283023
227.500 0.303848
228.500 0.313963
229.500 0.298096
230.500 0.315549
231.500 0.318723
232.500 0.290361
233.500 0.308013
234.500 0.274494
235.500 0.328243
236.500 0.290758
237.500 0.316144
238.500 0.266958
239.500 0.299484
240.500 0.295716
241.500 0.300278
242.500 0.340539
243.500 0.332408
244.500 0.347481
245.500 0.346291
246.500 0.347679
247.500 0.330424
248.500 0.320309
249.500 0.320309
250.500 0.365331
251.300 0.326061
251.800 0.301468
252.500 0.293733
253.500 0.308608
254.500 0.313963
255.500 0.350060
256.500 0.347878
257.500 0.374653
258.500 0.375843
259.500 0.370686
260.500 0.357795
261.500 0.343911
262.500 0.378421
263.500 0.395875
264.500 0.446846
265.500 0.459143
266.500 0.428798
267.500 0.449226
268.500 0.463110
269.500 0.431971
270.500 0.443078
271.500 0.412931
272.500 0.415708
273.500 0.437326
274.500 0.377826
275.500 0.403610
276.500 0.439508
277.500 0.458152
278.500 0.436335
279.500 0.279453
280.500 0.323879
281.500 0.481952
282.500 0.488893
283.500 0.481753
284.500 0.464300
285.500 0.407576
286.500 0.479373
287.500 0.484133
288.500 0.493455
289.500 0.499802
291.000 0.531337
293.000 0.523998
295.000 0.517652
297.000 0.522808
299.000 0.531733
301.000 0.536097
303.000 0.543038
305.000 0.553749
307.000 0.552162
309.000 0.553154
311.000 0.556922
313.000 0.559500
315.000 0.562079
317.000 0.573384
319.000 0.555335
321.000 0.573582
323.000 0.562277
325.000 0.592027
327.000 0.617414
329.000 0.620389
331.000 0.622769
332.200 0.592225
332.300 0.551369
332.400 0.543435
332.500 0.555930
332.600 0.556327
332.700 0.545617
332.800 0.549980
332.900 0.556525
333.000 0.576160
333.100 0.593614
333.200 0.592622
333.300 0.598770
333.400 0.587465
333.500 0.576557
333.600 0.561087
333.700 0.550377
333.800 0.563467
333.900 0.577747
334.000 0.584292
334.100 0.584887
334.200 0.579730
334.300 0.594804
334.400 0.611067
334.500 0.606505
334.600 0.592424
334.700 0.560294
334.800 0.540460
334.900 0.529552
335.000 0.557319
335.100 0.566045
335.200 0.550179
335.300 0.546410
335.400 0.561087
335.500 0.599365
335.600 0.605910
335.700 0.584292
335.800 0.531733
335.900 0.482150
336.000 0.455177
336.100 0.467275
336.200 0.498612
336.300 0.539667
336.400 0.570607
336.500 0.559699
336.600 0.547600
336.700 0.545815
336.800 0.544228
336.900 0.546212
337.000 0.505553
337.100 0.467275
337.200 0.462713
337.300 0.489092
337.400 0.527172
337.500 0.560690
337.600 0.577747
337.700 0.571400
337.800 0.552559
337.900 0.536097
338.000 0.537088
338.100 0.546212
338.200 0.549782
338.300 0.558112
338.400 0.571599
338.500 0.584292
338.600 0.577152
338.700 0.545220
338.800 0.525188
338.900 0.556327
339.000 0.581912
339.100 0.598770
339.200 0.576160
339.300 0.547798
339.400 0.556922
339.500 0.575367
339.600 0.603332
339.700 0.617810
339.800 0.626735
339.900 0.633280
340.000 0.630305
340.100 0.619595
340.200 0.593217
340.300 0.585284
340.400 0.577945
340.500 0.586474
340.600 0.589647
340.700 0.576160
340.800 0.551369
340.900 0.555930
341.000 0.583697
341.100 0.580127
341.200 0.571004
341.300 0.552559
341.400 0.554939
341.500 0.580524
341.600 0.598770
341.700 0.607497
341.800 0.607299
341.900 0.605315
342.000 0.608489
342.100 0.610670
342.200 0.597580
342.300 0.576755
342.400 0.568029
342.500 0.573979
342.600 0.579532
342.700 0.589052
342.800 0.610869
342.900 0.633479
343.000 0.649544
343.100 0.630504
343.200 0.605315
343.300 0.589845
343.400 0.600555
343.500 0.628719
343.600 0.633082
343.700 0.614835
343.800 0.593812
343.900 0.575565
344.000 0.567037
344.100 0.555732
344.200 0.549782
344.300 0.550377
344.400 0.558310
344.500 0.567235
344.600 0.587465
344.700 0.617215
344.800 0.637247
344.900 0.647560
345.000 0.626735
345.100 0.594010
345.200 0.569615
345.300 0.566640
345.400 0.580127
345.500 0.593614
345.600 0.601150
345.700 0.607894
345.800 0.608489
345.900 0.604125
346.000 0.585085
346.100 0.565649
346.200 0.573780
346.300 0.580524
346.400 0.589052
346.500 0.581714
346.600 0.581912
346.700 0.602935
346.800 0.632685
346.900 0.654106
347.000 0.658866
347.100 0.644189
347.200 0.627132
347.300 0.597184
347.400 0.577152
347.500 0.569020
347.600 0.570607
347.700 0.598374
347.800 0.625744
347.900 0.638239
348.000 0.647759
348.100 0.642999
348.200 0.635264
348.300 0.632090
348.400 0.630900
348.500 0.642007
348.600 0.658667
348.700 0.657477
348.800 0.643594
348.900 0.618009
349.000 0.597382
349.100 0.610075
349.200 0.629512
349.300 0.629115
349.400 0.623760
349.500 0.614042
349.600 0.604720
349.700 0.607695
349.800 0.597977
349.900 0.599762
350.000 0.601745
350.100 0.604125
350.200 0.615430
350.300 0.618009
350.400 0.618009
350.500 0.608885
350.600 0.604522
350.700 0.603927
350.800 0.596589
350.900 0.598175
351.000 0.597382
351.100 0.597977
351.200 0.595002
351.300 0.590242
351.400 0.595994
351.500 0.610472
351.600 0.638635
351.700 0.658469
351.800 0.654502
351.900 0.628917
352.000 0.611662
352.100 0.600952
352.200 0.595002
352.300 0.586672
352.400 0.572194
352.500 0.563665
352.600 0.572392
352.700 0.586870
352.800 0.607894
352.900 0.626934
353.000 0.641412
353.100 0.653511
353.200 0.650734
353.300 0.632090
353.400 0.618604
353.500 0.614240
353.600 0.631099
353.700 0.659262
353.800 0.672352
353.900 0.674931
354.000 0.668584
354.100 0.661642
354.200 0.662039
354.300 0.672154
354.400 0.681277
354.500 0.678104
354.600 0.671162
354.700 0.659659
354.800 0.653709
354.900 0.658667
355.000 0.671559
355.100 0.687029
355.200 0.678302
355.300 0.656684
355.400 0.643395
355.500 0.646767
355.600 0.661444
355.700 0.681476
355.800 0.692582
355.900 0.687227
356.000 0.677707
356.100 0.672154
356.200 0.665212
356.300 0.651527
356.400 0.633082
356.500 0.616025
356.600 0.613447
356.700 0.616422
356.800 0.614042
356.900 0.608290
357.000 0.595795
357.100 0.585879
357.200 0.585085
357.300 0.588655
357.400 0.595994
357.500 0.607497
357.600 0.616819
357.700 0.628322
357.800 0.640024
357.900 0.634074
358.000 0.617414
358.100 0.600952
358.200 0.591234
358.300 0.594804
358.400 0.587465
358.500 0.569219
358.600 0.543237
358.700 0.530742
358.800 0.547600
358.900 0.581912
359.000 0.611860
359.100 0.622372
359.200 0.616620
359.300 0.615430
359.400 0.621975
359.500 0.641412
359.600 0.656684
359.700 0.661246
359.800 0.658667
359.900 0.656486
360.000 0.658271
360.100 0.646767
360.200 0.636255
360.300 0.633082
360.400 0.640420
360.500 0.641809
360.600 0.633479
360.700 0.621777
360.800 0.614439
360.900 0.617215
361.000 0.617612
361.100 0.622769
361.200 0.635065
361.300 0.642800
361.400 0.650139
361.500 0.672154
361.600 0.676319
361.700 0.665411
361.800 0.641015
361.900 0.617414
362.000 0.627727
362.100 0.647362
362.200 0.659857
362.300 0.667592
362.400 0.674137
362.500 0.693376
362.600 0.714994
362.700 0.734629
362.800 0.728679
362.900 0.699722
363.000 0.657477
363.100 0.632090
363.200 0.640817
363.300 0.664419
363.400 0.670567
363.500 0.665411
363.600 0.662634
363.700 0.678104
363.800 0.697739
363.900 0.706466
364.000 0.706664
364.100 0.698136
364.200 0.683459
364.300 0.672551
364.400 0.664617
364.500 0.660651
364.600 0.658866
364.700 0.657477
364.800 0.657477
364.900 0.653511
365.000 0.652122
365.100 0.655494
365.200 0.669576
365.300 0.684252
365.400 0.704086
365.500 0.722134
365.600 0.733836
365.700 0.738992
365.800 0.735422
365.900 0.736811
366.000 0.740182
366.100 0.728679
366.200 0.714796
366.300 0.703292
366.400 0.703887
366.500 0.713209
366.600 0.715391
366.700 0.712416
366.800 0.699127
366.900 0.689012
367.000 0.689409
367.100 0.698136
367.200 0.710432
367.300 0.717572
367.400 0.715986
367.500 0.709639
367.600 0.690401
367.700 0.669179
367.800 0.658072
367.900 0.660254
368.000 0.669179
368.100 0.674336
368.200 0.678104
368.300 0.679096
368.400 0.678302
368.500 0.665609
368.600 0.659857
368.700 0.669179
368.800 0.694367
368.900 0.719357
369.000 0.716581
369.100 0.707656
369.200 0.703292
369.300 0.706267
369.400 0.712019
369.500 0.721142
369.600 0.719556
369.700 0.707656
369.800 0.718564
369.900 0.738596
370.000 0.762396
370.100 0.758628
370.200 0.715986
370.300 0.665212
370.400 0.634272
370.500 0.631099
370.600 0.645974
370.700 0.664617
370.800 0.682864
370.900 0.682467
371.000 0.661246
371.100 0.638040
371.200 0.637644
371.300 0.668187
371.400 0.713606
371.500 0.754859
371.600 0.776676
371.700 0.779849
371.800 0.757636
371.900 0.703887
372.000 0.625149
372.100 0.570409
372.200 0.566640
372.300 0.610472
372.400 0.682269
372.500 0.737009
372.600 0.757438
372.700 0.767354
372.800 0.773503
372.900 0.777271
373.000 0.772114
373.100 0.741967
373.200 0.666799
373.300 0.589449
373.400 0.532527
373.500 0.522015
373.600 0.563864
373.700 0.635264
373.800 0.693971
373.900 0.757636
374.000 0.794526
374.100 0.807219
374.200 0.792344
374.300 0.773899
374.400 0.746926
374.500 0.719556
374.600 0.697342
374.700 0.667791
374.800 0.626735
374.900 0.585482
375.000 0.563665
375.100 0.587862
375.200 0.642800
375.300 0.719952
375.400 0.780246
375.500 0.810194
375.600 0.815748
375.700 0.793336
375.800 0.778659
375.900 0.778461
376.000 0.778858
376.100 0.793138
376.200 0.803848
376.300 0.803649
376.400 0.794724
376.500 0.777073
376.600 0.754463
376.700 0.725307
376.800 0.670369
376.900 0.614240
377.000 0.575169
377.100 0.585284
377.200 0.636057
377.300 0.707259
377.400 0.759223
377.500 0.789568
377.600 0.802856
377.700 0.820904
377.800 0.848671
377.900 0.876041
378.000 0.901825
378.100 0.912733
378.200 0.910750
378.300 0.903015
378.400 0.898453
378.500 0.885958
378.600 0.873661
378.700 0.853630
378.800 0.838159
378.900 0.832804
379.000 0.829234
379.100 0.822689
379.200 0.805236
379.300 0.778659
379.400 0.737207
379.500 0.679691
379.600 0.621182
379.700 0.563467
379.800 0.541055
379.900 0.576160
380.000 0.658271
380.100 0.728877
380.200 0.793138
380.300 0.821499
380.400 0.843316
380.500 0.850456
380.600 0.855216
380.700 0.868306
380.800 0.888536
380.900 0.912733
381.000 0.929195
381.100 0.929988
381.200 0.905990
381.300 0.880603
381.400 0.859778
381.500 0.859976
381.600 0.878025
381.700 0.900436
381.800 0.906585
381.900 0.884768
382.000 0.862753
382.100 0.854621
382.200 0.859381
382.300 0.856803
382.400 0.831416
382.500 0.807219
382.600 0.788576
382.700 0.775486
382.800 0.756843
382.900 0.740182
383.000 0.727291
383.100 0.694169
383.200 0.653511
383.300 0.585284
383.400 0.522808
383.500 0.501587
383.600 0.515272
383.700 0.554344
383.800 0.608290
383.900 0.654502
384.000 0.693971
384.100 0.743356
384.200 0.784213
384.300 0.830424
384.400 0.861960
384.500 0.880206
384.600 0.897461
384.700 0.914716
384.800 0.924038
384.900 0.918088
385.000 0.913725
385.100 0.926418
385.200 0.950218
385.300 0.971440
385.400 0.971638
385.500 0.956565
385.600 0.939508
385.700 0.928996
385.800 0.916501
385.900 0.912535
386.000 0.923046
386.100 0.945061
386.200 0.963507
386.300 0.970448
386.400 0.965093
386.500 0.956962
386.600 0.958945
386.700 0.964498
386.800 0.969853
386.900 0.968465
387.000 0.951805
387.100 0.934351
387.200 0.909361
387.300 0.896271
387.400 0.894090
387.500 0.899048
387.600 0.893693
387.700 0.868901
387.800 0.846489
387.900 0.839548
388.000 0.848473
388.100 0.850258
388.200 0.835779
388.300 0.814954
388.400 0.780643
388.500 0.734827
388.600 0.678897
388.700 0.602539
388.800 0.552360
388.900 0.543832
389.000 0.585284
389.100 0.654502
389.200 0.721936
389.300 0.755653
389.400 0.778064
389.500 0.798294
389.600 0.822293
389.700 0.844704
389.800 0.861960
389.900 0.870686
390.000 0.879215
390.100 0.890520
390.200 0.896668
390.300 0.902618
390.400 0.897660
390.500 0.895875
390.600 0.905791
390.700 0.930186
390.800 0.959738
390.900 0.985918
391.000 0.997422
391.100 0.999802
391.200 0.998017
391.300 0.991273
391.400 0.979968
391.500 0.975010
391.600 0.977985
391.700 0.977985
391.800 0.971043
391.900 0.960730
392.000 0.955772
392.100 0.953987
392.200 0.953788
392.300 0.959143
392.400 0.961722
392.500 0.958747
392.600 0.935145
392.700 0.903015
392.800 0.855613
392.900 0.802063
393.000 0.729671
393.100 0.617810
393.200 0.493852
393.300 0.401428
393.400 0.399841
393.500 0.489488
393.600 0.624752
393.700 0.732447
393.800 0.829631
393.900 0.882190
394.000 0.915708
394.100 0.935541
394.200 0.939111
394.300 0.937525
394.400 0.944268
394.500 0.951805
394.600 0.962912
394.700 0.967077
394.800 0.961325
394.900 0.953987
395.000 0.947441
395.100 0.943871
395.200 0.942285
395.300 0.948830
395.400 0.948235
395.500 0.939111
395.600 0.926220
395.700 0.912535
395.800 0.911146
395.900 0.907378
396.000 0.882983
396.100 0.852440
396.200 0.809798
396.300 0.772511
396.400 0.732051
396.500 0.656486
396.600 0.557914
396.700 0.426418
396.800 0.334986
396.900 0.307814
397.000 0.363546
397.100 0.463110
397.200 0.582309
397.300 0.658271
397.400 0.730464
397.500 0.779254
397.600 0.820111
397.700 0.854225
397.800 0.881595
397.900 0.909361
398.000 0.921856
398.100 0.926616
398.200 0.933161
398.300 0.944466
398.400 0.961325
398.500 0.977787
398.600 0.991075
398.700 1.001587
398.800 1.012693
398.900 1.018048
399.000 1.021817
399.100 1.028957
399.200 1.034312
399.300 1.043237
399.400 1.045815
399.500 1.039468
399.600 1.021222
399.700 1.008330
399.800 1.013883
399.900 1.033518
400.000 1.046212
400.100 1.054145
400.200 1.053749
400.300 1.044823
400.400 1.030940
400.500 1.018842
400.600 1.020627
400.700 1.035303
400.800 1.056129
400.900 1.067434
401.000 1.070607
401.100 1.070607
401.200 1.067632
401.300 1.066244
401.400 1.068029
401.500 1.074970
401.600 1.081317
401.700 1.085482
401.800 1.091035
401.900 1.094605
402.000 1.098969
402.100 1.096390
402.200 1.091035
402.300 1.085085
402.400 1.079135
402.500 1.080127
402.600 1.089052
402.700 1.101944
402.800 1.100555
402.900 1.090837
403.000 1.071202
403.100 1.057120
403.200 1.051567
403.300 1.054344
403.400 1.062475
403.500 1.079135
403.600 1.097580
403.700 1.118207
403.800 1.124355
403.900 1.119397
404.000 1.111067
404.100 1.106307
404.200 1.105514
404.300 1.095002
404.400 1.066442
404.500 1.040460
404.600 1.036493
404.700 1.058112
404.800 1.085284
404.900 1.103927
405.000 1.106109
405.100 1.109084
405.200 1.104720
405.300 1.095399
405.400 1.086870
405.500 1.081515
405.600 1.082309
405.700 1.082110
405.800 1.084490
405.900 1.098770
406.000 1.107299
406.100 1.098175
406.200 1.069020
406.300 1.045617
406.400 1.035502
406.500 1.034312
406.600 1.040262
406.700 1.047005
406.800 1.050179
406.900 1.048592
407.000 1.040658
407.100 1.023602
407.200 1.014280
407.300 1.020032
407.400 1.029552
407.500 1.028560
407.600 1.006148
407.700 0.985323
407.800 0.975803
407.900 0.990282
408.000 1.014082
408.100 1.030147
408.200 1.030147
408.300 1.019437
408.400 1.007537
408.500 0.999405
408.600 1.002182
408.700 1.006743
408.800 1.011107
408.900 1.010512
409.000 1.003372
409.100 0.995835
409.200 0.988497
409.300 0.970250
409.400 0.953590
409.500 0.928203
409.600 0.902420
409.700 0.872471
409.800 0.828838
409.900 0.775883
410.000 0.691789
410.100 0.632289
410.200 0.622769
410.300 0.680881
410.400 0.754859
410.500 0.828639
410.600 0.867315
410.700 0.895875
410.800 0.913725
410.900 0.927608
411.000 0.945061
411.100 0.957755
411.200 0.974018
411.300 0.987307
411.400 1.001983
411.500 1.016263
411.600 1.021222
411.700 1.018048
411.800 1.011702
411.900 1.006148
412.000 1.007537
412.100 1.014478
412.200 1.023800
412.300 1.031932
412.400 1.040063
412.500 1.043832
412.600 1.044228
412.700 1.042840
412.800 1.043435
412.900 1.046608
413.000 1.044823
413.100 1.034510
413.200 1.022213
413.300 1.023007
413.400 1.036295
413.500 1.051170
413.600 1.063269
413.700 1.074772
413.800 1.086275
413.900 1.096192
414.000 1.095200
414.100 1.081317
414.200 1.060095
414.300 1.043237
414.400 1.042047
414.500 1.052162
414.600 1.068029
414.700 1.072987
414.800 1.073979
414.900 1.076755
415.000 1.079532
415.100 1.081714
415.200 1.075962
415.300 1.067830
415.400 1.061087
415.500 1.058509
