# Wavelength (nm)   F_lamA (normalized erg/cm2/s/A)9.100 0.000048
9.400 0.000068
9.600 0.000085
9.800 0.000104
10.000 0.000127
10.200 0.000154
10.400 0.000184
10.600 0.000219
10.800 0.000258
11.000 0.000302
11.400 0.000405
11.800 0.000531
12.100 0.000641
12.500 0.000809
12.700 0.000902
12.800 0.000951
13.100 0.001108
13.200 0.001164
13.400 0.001281
13.700 0.001467
14.000 0.001667
14.300 0.001883
14.700 0.002190
15.100 0.002521
15.500 0.002873
15.900 0.003245
16.200 0.003536
16.600 0.003937
17.000 0.004353
17.300 0.004673
17.700 0.005108
18.000 0.005441
18.200 0.005664
18.600 0.006116
19.100 0.006684
19.400 0.007024
19.800 0.007481
20.200 0.007933
20.500 0.008273
21.000 0.008831
21.600 0.009485
22.000 0.009910
22.300 0.010223
22.700 0.010632
23.000 0.071679
23.400 0.070457
24.000 0.068757
24.600 0.067322
25.200 0.065887
25.700 0.063709
26.000 0.063656
26.400 0.063177
26.900 0.061796
27.400 0.060308
27.900 0.058555
28.400 0.057492
29.000 0.055792
29.600 0.053719
30.100 0.051031
30.800 0.049825
31.800 0.048188
32.800 0.045824
33.800 0.043470
34.800 0.041249
35.700 0.039570
36.600 0.038023
37.500 0.036318
38.500 0.034315
39.500 0.032896
40.500 0.031445
41.400 0.030112
42.200 0.028900
43.000 0.027774
44.100 0.026493
45.100 0.025298
46.000 0.024187
47.000 0.023098
48.000 0.022131
49.000 0.021073
50.000 0.020250
50.600 0.019952
51.200 0.020282
52.000 0.019559
53.000 0.018725
54.000 0.017763
55.000 0.017051
56.000 0.016658
57.000 0.016047
58.000 0.015367
59.000 0.014841
60.000 0.014214
61.000 0.013634
62.000 0.013300
63.000 0.012795
64.000 0.012386
65.000 0.011918
65.800 0.011536
66.500 0.011323
67.500 0.010972
68.500 0.010510
69.500 0.010250
70.500 0.009809
71.600 0.009580
72.600 0.009283
73.500 0.009028
74.500 0.008725
75.500 0.008448
76.500 0.008146
77.500 0.007938
78.500 0.007694
79.500 0.007476
80.500 0.007269
81.500 0.007072
82.500 0.006881
83.500 0.006589
84.500 0.006498
85.500 0.006312
86.500 0.006158
87.500 0.005999
88.500 0.005840
89.500 0.005685
90.500 0.005515
91.500 0.006605
92.500 0.008868
93.500 0.010887
94.500 0.013629
95.500 0.014617
96.500 0.016015
97.500 0.010909
98.500 0.015866
99.500 0.015515
100.500 0.015956
101.500 0.014867
102.500 0.010579
103.500 0.013714
104.500 0.015611
105.500 0.017933
106.500 0.022295
107.500 0.029814
108.500 0.034224
109.500 0.035739
110.500 0.070723
111.500 0.080712
112.500 0.077843
113.500 0.076939
114.500 0.058980
115.500 0.041275
116.500 0.027758
117.500 0.016296
118.500 0.012896
119.500 0.011249
120.500 0.010117
121.500 0.007179
122.500 0.009989
123.500 0.010994
124.500 0.012067
125.500 0.016562
126.500 0.026121
127.500 0.050776
128.500 0.089798
129.500 0.127205
130.500 0.150956
131.500 0.201913
132.500 0.241658
133.500 0.268650
134.500 0.310468
135.500 0.311796
136.500 0.329649
137.500 0.356004
138.500 0.370670
139.500 0.393252
140.500 0.396121
141.500 0.406748
142.500 0.412274
143.500 0.396387
144.200 0.434644
144.700 0.434644
145.500 0.453560
146.500 0.430925
147.500 0.441977
148.500 0.449044
149.500 0.457864
150.500 0.472476
151.200 0.466844
151.700 0.468491
152.500 0.460149
153.500 0.453348
154.500 0.474230
155.500 0.464772
156.500 0.432253
157.500 0.468863
158.500 0.485069
159.500 0.505739
160.500 0.474708
161.500 0.487832
162.500 0.461052
163.500 0.479809
164.500 0.506164
165.500 0.442774
166.500 0.515834
167.200 0.464293
167.700 0.497821
168.500 0.524230
169.500 0.497768
170.500 0.497556
171.500 0.516684
172.500 0.508714
173.500 0.527099
174.500 0.514984
175.500 0.532412
176.500 0.494261
177.500 0.523539
178.500 0.519501
179.500 0.538789
180.500 0.539851
181.500 0.534538
182.500 0.519819
183.500 0.523592
184.500 0.496971
185.500 0.512699
186.500 0.519872
187.500 0.522635
188.500 0.522848
189.500 0.524442
190.500 0.513231
191.500 0.519447
192.500 0.523433
193.500 0.503985
194.500 0.530181
195.500 0.528587
196.700 0.535069
197.600 0.522264
198.400 0.519979
199.500 0.516950
200.500 0.504304
201.500 0.499947
202.500 0.489692
203.500 0.510574
204.500 0.517906
205.500 0.505260
206.500 0.503135
207.400 0.520829
207.800 0.526355
208.500 0.524017
209.500 0.513018
210.500 0.508023
211.500 0.512593
212.500 0.510149
213.500 0.485600
214.500 0.511158
215.500 0.506482
216.500 0.488204
217.500 0.488470
218.500 0.496971
219.500 0.518225
220.500 0.501860
221.500 0.477577
222.500 0.483528
223.500 0.517800
224.500 0.496546
225.500 0.477471
226.500 0.468863
227.500 0.492402
228.500 0.502976
229.500 0.481828
230.500 0.495005
231.500 0.490117
232.500 0.445537
233.500 0.473326
234.500 0.434750
235.500 0.484219
236.500 0.442349
237.500 0.467906
238.500 0.416897
239.500 0.448831
240.500 0.440967
241.500 0.448672
242.500 0.484431
243.500 0.471626
244.500 0.490542
245.500 0.486451
246.500 0.481509
247.500 0.462487
248.500 0.457864
249.500 0.454304
250.500 0.498140
251.300 0.452657
251.800 0.434113
252.500 0.421998
253.500 0.435228
254.500 0.440595
255.500 0.474920
256.500 0.467056
257.500 0.490861
258.500 0.488417
259.500 0.481190
260.500 0.463496
261.500 0.451913
262.500 0.479490
263.500 0.503029
264.500 0.555792
265.500 0.569607
266.500 0.532944
267.500 0.552604
268.500 0.563762
269.500 0.530287
270.500 0.542508
271.500 0.510096
272.500 0.511530
273.500 0.532944
274.500 0.464825
275.500 0.488310
276.500 0.521573
277.500 0.543571
278.500 0.510521
279.500 0.362434
280.500 0.402019
281.500 0.551010
282.500 0.570670
283.500 0.560574
284.500 0.543039
285.500 0.492295
286.500 0.559511
287.500 0.564825
288.500 0.566950
289.500 0.570138
291.000 0.606801
293.000 0.592986
295.000 0.588204
297.000 0.594580
299.000 0.599894
301.000 0.607333
303.000 0.609458
305.000 0.617960
307.000 0.609989
309.000 0.611052
311.000 0.612115
313.000 0.607333
315.000 0.605207
317.000 0.617428
319.000 0.595643
321.000 0.615834
323.000 0.598300
325.000 0.630181
327.000 0.653560
329.000 0.653560
331.000 0.654623
332.200 0.545696
332.300 0.520351
332.400 0.513921
332.500 0.531881
332.600 0.532412
332.700 0.524548
332.800 0.533475
332.900 0.548353
333.000 0.573858
333.100 0.580234
333.200 0.564825
333.300 0.555792
333.400 0.539320
333.500 0.541977
333.600 0.541445
333.700 0.539320
333.800 0.549416
333.900 0.548884
334.000 0.548353
334.100 0.553666
334.200 0.545165
334.300 0.552072
334.400 0.566950
334.500 0.570138
334.600 0.573326
334.700 0.551010
334.800 0.516525
334.900 0.492030
335.000 0.497821
335.100 0.512274
335.200 0.519713
335.300 0.530659
335.400 0.547290
335.500 0.563231
335.600 0.555792
335.700 0.531881
335.800 0.493146
335.900 0.460786
336.000 0.433369
336.100 0.447662
336.200 0.476089
336.300 0.514559
336.400 0.536663
336.500 0.530181
336.600 0.522582
336.700 0.520298
336.800 0.513921
336.900 0.506057
337.000 0.485122
337.100 0.468810
337.200 0.458448
337.300 0.472423
337.400 0.493411
337.500 0.527896
337.600 0.540914
337.700 0.541445
337.800 0.527896
337.900 0.519766
338.000 0.526727
338.100 0.535069
338.200 0.538789
338.300 0.535069
338.400 0.531881
338.500 0.542508
338.600 0.538257
338.700 0.525505
338.800 0.511052
338.900 0.515356
339.000 0.535600
339.100 0.556323
339.200 0.557917
339.300 0.547290
339.400 0.543571
339.500 0.551010
339.600 0.562699
339.700 0.573326
339.800 0.586079
339.900 0.584485
340.000 0.577046
340.100 0.564293
340.200 0.541445
340.300 0.530871
340.400 0.519182
340.500 0.531350
340.600 0.538789
340.700 0.542508
340.800 0.540914
340.900 0.531350
341.000 0.541445
341.100 0.540914
341.200 0.535069
341.300 0.524176
341.400 0.515356
341.500 0.531350
341.600 0.546759
341.700 0.552604
341.800 0.565356
341.900 0.573858
342.000 0.585016
342.100 0.586610
342.200 0.562168
342.300 0.533475
342.400 0.526089
342.500 0.537726
342.600 0.548353
342.700 0.565356
342.800 0.585016
342.900 0.598831
343.000 0.606801
343.100 0.583953
343.200 0.560043
343.300 0.547821
343.400 0.564293
343.500 0.588204
343.600 0.595112
343.700 0.584485
343.800 0.568544
343.900 0.557386
344.000 0.546227
344.100 0.524973
344.200 0.509511
344.300 0.503719
344.400 0.511530
344.500 0.530659
344.600 0.556323
344.700 0.582891
344.800 0.597768
344.900 0.609458
345.000 0.594580
345.100 0.571201
345.200 0.554729
345.300 0.550478
345.400 0.559511
345.500 0.569075
345.600 0.567481
345.700 0.563231
345.800 0.553135
345.900 0.544633
346.000 0.533475
346.100 0.533475
346.200 0.548884
346.300 0.557386
346.400 0.564825
346.500 0.552604
346.600 0.552604
346.700 0.564293
346.800 0.577577
346.900 0.587141
347.000 0.593518
347.100 0.595112
347.200 0.590861
347.300 0.564825
347.400 0.538257
347.500 0.530499
347.600 0.535600
347.700 0.561105
347.800 0.575452
347.900 0.584485
348.000 0.597768
348.100 0.599894
348.200 0.593518
348.300 0.586610
348.400 0.581296
348.500 0.585547
348.600 0.594049
348.700 0.592455
348.800 0.585547
348.900 0.574920
349.000 0.566950
349.100 0.571201
349.200 0.586079
349.300 0.589267
349.400 0.582891
349.500 0.572795
349.600 0.559511
349.700 0.566419
349.800 0.569075
349.900 0.570138
350.000 0.564293
350.100 0.554729
350.200 0.563762
350.300 0.573858
350.400 0.578108
350.500 0.572264
350.600 0.557386
350.700 0.546227
350.800 0.539320
350.900 0.552604
351.000 0.564293
351.100 0.566950
351.200 0.556323
351.300 0.541445
351.400 0.538789
351.500 0.548884
351.600 0.577577
351.700 0.599362
351.800 0.609458
351.900 0.593518
352.000 0.575983
352.100 0.570138
352.200 0.563762
352.300 0.555260
352.400 0.540914
352.500 0.531031
352.600 0.540383
352.700 0.554198
352.800 0.568544
352.900 0.579702
353.000 0.589267
353.100 0.598831
353.200 0.587141
353.300 0.547821
353.400 0.526089
353.500 0.519872
353.600 0.553666
353.700 0.589798
353.800 0.603082
353.900 0.616366
354.000 0.613177
354.100 0.607333
354.200 0.604676
354.300 0.617960
354.400 0.626993
354.500 0.619554
354.600 0.613177
354.700 0.607333
354.800 0.604145
354.900 0.603613
355.000 0.610521
355.100 0.621679
355.200 0.622210
355.300 0.603082
355.400 0.585547
355.500 0.586610
355.600 0.596174
355.700 0.612115
355.800 0.623804
355.900 0.631243
356.000 0.633369
356.100 0.632306
356.200 0.625399
356.300 0.611052
356.400 0.590861
356.500 0.571732
356.600 0.560043
356.700 0.563231
356.800 0.568544
356.900 0.570138
357.000 0.561105
357.100 0.546759
357.200 0.541977
357.300 0.541445
357.400 0.547290
357.500 0.560574
357.600 0.573858
357.700 0.577577
357.800 0.579702
357.900 0.577046
358.000 0.564825
358.100 0.549947
358.200 0.536663
358.300 0.537194
358.400 0.539851
358.500 0.531881
358.600 0.518969
358.700 0.511796
358.800 0.519501
358.900 0.544102
359.000 0.565356
359.100 0.579171
359.200 0.580234
359.300 0.574920
359.400 0.576514
359.500 0.586610
359.600 0.599362
359.700 0.607333
359.800 0.608395
359.900 0.608927
360.000 0.605739
360.100 0.587673
360.200 0.575452
360.300 0.569075
360.400 0.578640
360.500 0.591392
360.600 0.591392
360.700 0.586079
360.800 0.575983
360.900 0.572264
361.000 0.571732
361.100 0.573326
361.200 0.578640
361.300 0.585016
361.400 0.597237
361.500 0.619554
361.600 0.618491
361.700 0.604676
361.800 0.587141
361.900 0.574920
362.000 0.583422
362.100 0.595112
362.200 0.604676
362.300 0.609458
362.400 0.615303
362.500 0.631243
362.600 0.654091
362.700 0.672157
362.800 0.663124
362.900 0.640276
363.000 0.601488
363.100 0.581296
363.200 0.586079
363.300 0.606801
363.400 0.623804
363.500 0.619554
363.600 0.616366
363.700 0.624336
363.800 0.633369
363.900 0.640276
364.000 0.644527
364.100 0.640808
364.200 0.629118
364.300 0.618491
364.400 0.613177
364.500 0.611052
364.600 0.606801
364.700 0.604145
364.800 0.604145
364.900 0.603613
365.000 0.603613
365.100 0.606270
365.200 0.621679
365.300 0.634431
365.400 0.644527
365.500 0.656217
365.600 0.664718
365.700 0.668438
365.800 0.666312
365.900 0.659405
366.000 0.651966
366.100 0.642933
366.200 0.633900
366.300 0.631775
366.400 0.637620
366.500 0.645590
366.600 0.649309
366.700 0.649841
366.800 0.645058
366.900 0.636026
367.000 0.631243
367.100 0.632837
367.200 0.643464
367.300 0.651435
367.400 0.649309
367.500 0.643464
367.600 0.630712
367.700 0.616366
367.800 0.604145
367.900 0.606270
368.000 0.615303
368.100 0.619022
368.200 0.619554
368.300 0.615834
368.400 0.618491
368.500 0.617428
368.600 0.613177
368.700 0.608927
368.800 0.621148
368.900 0.643464
369.000 0.652497
369.100 0.651966
369.200 0.647184
369.300 0.651966
369.400 0.662062
369.500 0.663656
369.600 0.651966
369.700 0.632306
369.800 0.641870
369.900 0.671626
370.000 0.708820
370.100 0.712540
370.200 0.674283
370.300 0.621148
370.400 0.580234
370.500 0.576514
370.600 0.594049
370.700 0.630181
370.800 0.651966
370.900 0.650372
371.000 0.620085
371.100 0.592986
371.200 0.582359
371.300 0.607864
371.400 0.664718
371.500 0.710414
371.600 0.741233
371.700 0.752391
371.800 0.733262
371.900 0.677471
372.000 0.598300
372.100 0.533475
372.200 0.524548
372.300 0.562168
372.400 0.642933
372.500 0.697131
372.600 0.736982
372.700 0.753454
372.800 0.761424
372.900 0.763549
373.000 0.758236
373.100 0.725292
373.200 0.648247
373.300 0.565887
373.400 0.500956
373.500 0.487832
373.600 0.529224
373.700 0.596706
373.800 0.673220
373.900 0.750266
374.000 0.794368
374.100 0.819341
374.200 0.807120
374.300 0.787991
374.400 0.761955
374.500 0.733794
374.600 0.696068
374.700 0.649841
374.800 0.585016
374.900 0.529809
375.000 0.499575
375.100 0.530978
375.200 0.595112
375.300 0.688098
375.400 0.747609
375.500 0.791180
375.600 0.814028
375.700 0.810840
375.800 0.802869
375.900 0.794899
376.000 0.795430
376.100 0.816684
376.200 0.828905
376.300 0.823592
376.400 0.812965
376.500 0.785335
376.600 0.760361
376.700 0.717853
376.800 0.650903
376.900 0.595643
377.000 0.536663
377.100 0.540914
377.200 0.587141
377.300 0.659936
377.400 0.714665
377.500 0.762487
377.600 0.786397
377.700 0.820935
377.800 0.863443
377.900 0.900638
378.000 0.944208
378.100 0.961743
378.200 0.967588
378.300 0.961743
378.400 0.953773
378.500 0.942614
378.600 0.933050
378.700 0.913921
378.800 0.897450
378.900 0.882572
379.000 0.870351
379.100 0.858130
379.200 0.828374
379.300 0.791711
379.400 0.736451
379.500 0.672689
379.600 0.604676
379.700 0.534006
379.800 0.509671
379.900 0.535069
380.000 0.614772
380.100 0.704038
380.200 0.783209
380.300 0.821467
380.400 0.859192
380.500 0.873539
380.600 0.889479
380.700 0.912859
380.800 0.937832
380.900 0.970244
381.000 0.994155
381.100 1.007970
381.200 0.992030
381.300 0.972901
381.400 0.957492
381.500 0.957492
381.600 0.967588
381.700 0.986185
381.800 0.993624
381.900 0.966525
382.000 0.943677
382.100 0.929862
382.200 0.938363
382.300 0.938895
382.400 0.909139
382.500 0.877790
382.600 0.849628
382.700 0.827843
382.800 0.795962
382.900 0.769394
383.000 0.742295
383.100 0.697662
383.200 0.652497
383.300 0.575983
383.400 0.517853
383.500 0.480499
383.600 0.483422
383.700 0.517003
383.800 0.581296
383.900 0.635494
384.000 0.695537
384.100 0.752391
384.200 0.803401
384.300 0.861318
384.400 0.895855
384.500 0.927736
384.600 0.955898
384.700 0.980871
384.800 1.000531
384.900 1.002657
385.000 1.004782
385.100 1.021254
385.200 1.049416
385.300 1.075452
385.400 1.080765
385.500 1.072264
385.600 1.058448
385.700 1.048353
385.800 1.036663
385.900 1.034006
386.000 1.046227
386.100 1.064825
386.200 1.075983
386.300 1.085016
386.400 1.083953
386.500 1.078108
386.600 1.078640
386.700 1.081296
386.800 1.083422
386.900 1.077046
387.000 1.057386
387.100 1.037726
387.200 1.010627
387.300 0.996281
387.400 0.988842
387.500 0.990436
387.600 0.985122
387.700 0.959086
387.800 0.930925
387.900 0.902763
388.000 0.901700
388.100 0.893730
388.200 0.863443
388.300 0.834219
388.400 0.787991
388.500 0.740701
388.600 0.674814
388.700 0.595112
388.800 0.539851
388.900 0.518438
389.000 0.550478
389.100 0.621679
389.200 0.691286
389.300 0.740170
389.400 0.778959
389.500 0.805526
389.600 0.848565
389.700 0.878852
389.800 0.906482
389.900 0.925080
390.000 0.938895
390.100 0.965462
390.200 0.979277
390.300 0.994155
390.400 0.993624
390.500 0.995749
390.600 1.009033
390.700 1.035600
390.800 1.073326
390.900 1.100425
391.000 1.115303
391.100 1.118491
391.200 1.117428
391.300 1.109989
391.400 1.097237
391.500 1.097768
391.600 1.109989
391.700 1.112115
391.800 1.106801
391.900 1.098300
392.000 1.097768
392.100 1.101488
392.200 1.105739
392.300 1.111052
392.400 1.109989
392.500 1.104676
392.600 1.079171
392.700 1.047821
392.800 1.009564
392.900 0.962274
393.000 0.914984
393.100 0.823061
393.200 0.708289
393.300 0.607333
393.400 0.583422
393.500 0.660468
393.600 0.780021
393.700 0.892136
393.800 0.979809
393.900 1.027099
394.000 1.052072
394.100 1.072264
394.200 1.079171
394.300 1.074389
394.400 1.074920
394.500 1.077046
394.600 1.086079
394.700 1.087673
394.800 1.075983
394.900 1.064825
395.000 1.060043
395.100 1.054729
395.200 1.042508
395.300 1.045696
395.400 1.043571
395.500 1.035600
395.600 1.019660
395.700 0.994687
395.800 0.984591
395.900 0.969182
396.000 0.937832
396.100 0.900106
396.200 0.849628
396.300 0.808714
396.400 0.761424
396.500 0.682784
396.600 0.588735
396.700 0.463496
396.800 0.376355
396.900 0.324655
397.000 0.359989
397.100 0.438789
397.200 0.544633
397.300 0.633369
397.400 0.716259
397.500 0.771520
397.600 0.829437
397.700 0.872476
397.800 0.911265
397.900 0.949522
398.000 0.964931
398.100 0.980340
398.200 0.995749
398.300 1.015409
398.400 1.036132
398.500 1.055260
398.600 1.071201
398.700 1.088204
398.800 1.111583
398.900 1.116366
399.000 1.118491
399.100 1.125399
399.200 1.131775
399.300 1.148778
399.400 1.157811
399.500 1.157279
399.600 1.143464
399.700 1.131243
399.800 1.130712
399.900 1.147184
400.000 1.161530
400.100 1.171626
400.200 1.173751
400.300 1.170563
400.400 1.160468
400.500 1.150372
400.600 1.152497
400.700 1.163124
400.800 1.184910
400.900 1.198725
401.000 1.204570
401.100 1.204038
401.200 1.198725
401.300 1.195537
401.400 1.195537
401.500 1.200850
401.600 1.206164
401.700 1.213071
401.800 1.218916
401.900 1.223167
402.000 1.226886
402.100 1.224230
402.200 1.218385
402.300 1.212540
402.400 1.208820
402.500 1.212540
402.600 1.218916
402.700 1.228480
402.800 1.229543
402.900 1.222635
403.000 1.203507
403.100 1.190223
403.200 1.184910
403.300 1.187566
403.400 1.196068
403.500 1.212009
403.600 1.229012
403.700 1.249203
403.800 1.250797
403.900 1.242295
404.000 1.232200
404.100 1.225292
404.200 1.225824
404.300 1.217853
404.400 1.195005
404.500 1.168969
404.600 1.155685
404.700 1.175877
404.800 1.204038
404.900 1.226355
405.000 1.228480
405.100 1.226355
405.200 1.222104
405.300 1.215197
405.400 1.207226
405.500 1.204570
405.600 1.204038
405.700 1.206164
405.800 1.208289
405.900 1.221573
406.000 1.227418
406.100 1.223167
406.200 1.196068
406.300 1.169501
406.400 1.154623
406.500 1.149841
406.600 1.157811
406.700 1.162062
406.800 1.161530
406.900 1.159405
407.000 1.148247
407.100 1.124336
407.200 1.114772
407.300 1.119554
407.400 1.127524
407.500 1.128587
407.600 1.106801
407.700 1.087141
407.800 1.077046
407.900 1.088204
408.000 1.105207
408.100 1.114772
408.200 1.113709
408.300 1.103613
408.400 1.091923
408.500 1.076514
408.600 1.070138
408.700 1.066950
408.800 1.064293
408.900 1.059511
409.000 1.041445
409.100 1.029224
409.200 1.013284
409.300 0.987248
409.400 0.965462
409.500 0.931987
409.600 0.902232
409.700 0.862380
409.800 0.814559
409.900 0.756642
410.000 0.664718
410.100 0.605739
410.200 0.583422
410.300 0.640276
410.400 0.716791
410.500 0.797556
410.600 0.841126
410.700 0.882572
410.800 0.909139
410.900 0.935707
411.000 0.961743
411.100 0.979277
411.200 1.005845
411.300 1.024973
411.400 1.047290
411.500 1.068544
411.600 1.079171
411.700 1.083422
411.800 1.080234
411.900 1.079702
412.000 1.085016
412.100 1.096174
412.200 1.108927
412.300 1.116897
412.400 1.126461
412.500 1.134431
412.600 1.138682
412.700 1.141339
412.800 1.142933
412.900 1.145058
413.000 1.140808
413.100 1.135494
413.200 1.126993
413.300 1.130181
413.400 1.147184
413.500 1.160999
413.600 1.173220
413.700 1.183316
413.800 1.190755
413.900 1.201913
414.000 1.199256
414.100 1.187035
414.200 1.169501
414.300 1.155154
414.400 1.155154
414.500 1.162062
414.600 1.179065
414.700 1.183316
414.800 1.183316
414.900 1.185441
415.000 1.187566
415.100 1.189160
415.200 1.184378
415.300 1.176408
415.400 1.170032
415.500 1.170032
